0,1
18912.50389466614,13675.0
18912.50395716338,12266.0
18912.504019660613,11127.0
18912.50408215785,9860.0
18912.50414465509,8333.0
18912.504207152328,6727.0
18912.504269649562,5416.0
18912.5043321468,4480.0
18912.50439464404,3467.0
18912.504457141276,3044.0
18912.50451963851,2962.0
18912.50458213575,2836.0
18912.504644632987,3215.0
18912.504707130225,4282.0
18912.50476962746,6188.0
18912.504832124698,7804.0
18912.504894621936,9179.0
18912.504957119174,10846.0
18912.50501961641,11168.0
18912.505082113646,11550.0
18912.505144610885,12647.0
18912.505207108123,12651.0
18912.505269605357,12189.0
18912.505332102595,11288.0
18912.505394599833,10118.0
18912.505457097068,9055.0
18912.505519594306,8028.0
18912.505582091544,7732.0
18912.505644588782,7902.0
18912.505707086017,7683.0
18912.505769583255,7299.0
18912.505832080493,7450.0
18912.50589457773,7321.0
18912.505957074965,7091.0
18912.506019572204,7086.0
18912.50608206944,6550.0
18912.50614456668,5847.0
18912.506207063914,4686.0
18912.506269561152,3807.0
18912.50633205839,3533.0
18912.50639455563,2568.0
18912.506457052863,1703.0
18912.5065195501,871.0
18912.50658204734,-1247.0
18912.506644544577,-3862.0
18912.50670704181,-6241.0
18912.50676953905,-8994.0
18912.506832036288,-11993.0
18912.506894533526,-15049.0
18912.50695703076,-18077.0
18912.507019528,-20079.0
18912.507082025237,-21118.0
18912.507144522475,-21976.0
18912.50720701971,-21884.0
18912.507269516947,-21653.0
18912.507332014186,-22659.0
18912.50739451142,-23259.0
18912.507457008658,-23498.0
18912.507519505896,-24651.0
18912.507582003134,-25220.0
18912.50764450037,-25056.0
18912.507706997607,-25526.0
18912.507769494845,-25971.0
18912.507831992083,-25741.0
18912.507894489318,-25302.0
18912.507956986556,-23799.0
18912.508019483794,-19176.0
18912.508081981032,-11678.0
18912.508144478266,-4516.0
18912.508206975504,1537.0
18912.508269472743,7775.0
18912.50833196998,11934.0
18912.508394467215,13124.0
18912.508456964453,15175.0
18912.50851946169,16566.0
18912.50858195893,14588.0
18912.508644456164,12674.0
18912.508706953402,11256.0
18912.50876945064,9174.0
18912.508831947875,7498.0
18912.508894445113,7113.0
18912.50895694235,7019.0
18912.50901943959,4541.0
18912.509081936827,1859.0
18912.50914443406,295.0
18912.5092069313,-1684.0
18912.509269428538,-2423.0
18912.509331925772,-1741.0
18912.50939442301,-516.0
18912.50945692025,374.0
18912.509519417486,1957.0
18912.50958191472,5078.0
18912.50964441196,7829.0
18912.509706909197,10567.0
18912.509769406435,13101.0
18912.50983190367,14464.0
18912.509894400908,14366.0
18912.509956898146,13311.0
18912.510019395384,12967.0
18912.51008189262,12361.0
18912.510144389857,11227.0
18912.510206887095,10123.0
18912.510269384333,8624.0
18912.510331881567,7091.0
18912.510394378805,5495.0
18912.510456876043,4718.0
18912.51051937328,4410.0
18912.510581870516,3692.0
18912.510644367754,3030.0
18912.510706864992,2511.0
18912.510769362227,2645.0
18912.510831859465,3932.0
18912.510894356703,6440.0
18912.51095685394,8886.0
18912.51101935118,10265.0
18912.511081848414,11617.0
18912.51114434565,12504.0
18912.51120684289,12867.0
18912.511269340124,13514.0
18912.511331837362,13570.0
18912.5113943346,12293.0
18912.51145683184,10739.0
18912.511519329073,9562.0
18912.51158182631,8162.0
18912.51164432355,7147.0
18912.511706820787,7144.0
18912.511769318022,7160.0
18912.51183181526,6380.0
18912.511894312498,5802.0
18912.511956809736,6132.0
18912.51201930697,6149.0
18912.51208180421,6076.0
18912.512144301447,6545.0
18912.512206798685,6536.0
18912.51226929592,5910.0
18912.512331793158,5395.0
18912.512394290396,5018.0
18912.512456787634,4275.0
18912.512519284868,3282.0
18912.512581782106,2374.0
18912.512644279344,718.0
18912.51270677658,-1923.0
18912.512769273817,-4518.0
18912.512831771055,-7288.0
18912.512894268293,-10315.0
18912.512956765528,-13386.0
18912.513019262766,-16649.0
18912.513081760004,-19012.0
18912.513144257242,-20414.0
18912.513206754476,-21416.0
18912.513269251715,-21871.0
18912.513331748953,-21889.0
18912.51339424619,-22199.0
18912.513456743425,-22952.0
18912.513519240663,-23402.0
18912.5135817379,-23757.0
18912.51364423514,-24273.0
18912.513706732374,-24928.0
18912.513769229612,-25332.0
18912.51383172685,-25415.0
18912.51389422409,-25890.0
18912.513956721323,-25590.0
18912.51401921856,-24177.0
18912.5140817158,-21524.0
18912.514144213037,-16141.0
18912.51420671027,-9161.0
18912.51426920751,-2128.0
18912.514331704748,4050.0
18912.514394201986,8910.0
18912.51445669922,13262.0
18912.51451919646,15082.0
18912.514581693697,15626.0
18912.51464419093,16161.0
18912.51470668817,13845.0
18912.514769185407,11261.0
18912.514831682645,9611.0
18912.51489417988,7888.0
18912.514956677118,6532.0
18912.515019174356,5297.0
18912.515081671594,4873.0
18912.51514416883,3123.0
18912.515206666067,679.0
18912.515269163305,-364.0
18912.515331660543,-1188.0
18912.515394157777,-1514.0
18912.515456655015,-904.0
18912.515519152254,785.0
18912.51558164949,2302.0
18912.515644146726,4164.0
18912.515706643964,7423.0
18912.515769141202,10091.0
18912.51583163844,12460.0
18912.515894135675,14436.0
18912.515956632913,15254.0
18912.51601913015,14961.0
18912.516081627386,13760.0
18912.516144124624,13127.0
18912.51620662186,12010.0
18912.5162691191,10290.0
18912.516331616338,8919.0
18912.516394113572,6901.0
18912.51645661081,5104.0
18912.51651910805,3709.0
18912.516581605283,2629.0
18912.51664410252,2037.0
18912.51670659976,1409.0
18912.516769096997,1202.0
18912.516831594232,1199.0
18912.51689409147,1670.0
18912.516956588708,3207.0
18912.517019085946,5505.0
18912.51708158318,8239.0
18912.51714408042,10667.0
18912.517206577657,13137.0
18912.517269074895,14689.0
18912.51733157213,15413.0
18912.517394069368,16585.0
18912.517456566606,16319.0
18912.517519063844,14987.0
18912.51758156108,13613.0
18912.517644058316,11555.0
18912.517706555554,9318.0
18912.517769052793,7397.0
18912.517831550027,6673.0
18912.517894047265,6081.0
18912.517956544503,5204.0
18912.518019041738,5168.0
18912.518081538976,5290.0
18912.518144036214,5225.0
18912.518206533452,5505.0
18912.518269030686,6253.0
18912.518331527925,6073.0
18912.518394025163,5335.0
18912.5184565224,5436.0
18912.518519019635,4935.0
18912.518581516873,4028.0
18912.51864401411,3720.0
18912.51870651135,2924.0
18912.518769008584,1215.0
18912.518831505822,-874.0
18912.51889400306,-3019.0
18912.5189565003,-5782.0
18912.519018997533,-9063.0
18912.51908149477,-12049.0
18912.51914399201,-15430.0
18912.519206489247,-18716.0
18912.51926898648,-20541.0
18912.51933148372,-21550.0
18912.519393980958,-22285.0
18912.519456478196,-22579.0
18912.51951897543,-22640.0
18912.51958147267,-23107.0
18912.519643969907,-23886.0
18912.519706467145,-24504.0
18912.51976896438,-25200.0
18912.519831461617,-25715.0
18912.519893958855,-25532.0
18912.51995645609,-25384.0
18912.520018953328,-25244.0
18912.520081450566,-24698.0
18912.520143947804,-24384.0
18912.52020644504,-22467.0
18912.520268942277,-17687.0
18912.520331439515,-11428.0
18912.520393936753,-3826.0
18912.520456433987,3286.0
18912.520518931226,8430.0
18912.520581428464,12394.0
18912.5206439257,14465.0
18912.520706422936,15633.0
18912.520768920174,16178.0
18912.520831417412,14920.0
18912.52089391465,12957.0
18912.520956411885,10613.0
18912.521018909123,8296.0
18912.52108140636,6842.0
18912.5211439036,5878.0
18912.521206400834,5325.0
18912.521268898072,3828.0
18912.52133139531,1637.0
18912.521393892544,-296.0
18912.521456389783,-2328.0
18912.52151888702,-3044.0
18912.52158138426,-2532.0
18912.521643881497,-1315.0
18912.52170637873,404.0
18912.52176887597,2444.0
18912.521831373208,5723.0
18912.521893870442,8726.0
18912.52195636768,11275.0
18912.52201886492,13951.0
18912.522081362156,15212.0
18912.52214385939,15199.0
18912.52220635663,14294.0
18912.522268853867,13291.0
18912.522331351105,12246.0
18912.52239384834,10780.0
18912.522456345578,9536.0
18912.522518842816,8010.0
18912.522581340054,6233.0
18912.52264383729,4754.0
18912.522706334526,3778.0
18912.522768831765,3135.0
18912.522831329003,2398.0
18912.522893826237,1880.0
18912.522956323475,1514.0
18912.523018820713,1467.0
18912.52308131795,2227.0
18912.523143815186,3778.0
18912.523206312424,5960.0
18912.523268809662,8563.0
18912.523331306897,11438.0
18912.523393804135,13435.0
18912.523456301373,14562.0
18912.52351879861,15857.0
18912.523581295845,15953.0
18912.523643793083,14708.0
18912.52370629032,13661.0
18912.52376878756,12088.0
18912.523831284794,9768.0
18912.523893782032,8180.0
18912.52395627927,7676.0
18912.52401877651,7066.0
18912.524081273743,6314.0
18912.52414377098,6399.0
18912.52420626822,6208.0
18912.524268765457,5017.0
18912.52433126269,4481.0
18912.52439375993,4757.0
18912.524456257168,4344.0
18912.524518754406,3899.0
18912.52458125164,4314.0
18912.52464374888,4248.0
18912.524706246117,3662.0
18912.524768743355,3420.0
18912.52483124059,2900.0
18912.524893737827,1280.0
18912.524956235065,-1157.0
18912.525018732304,-3803.0
18912.525081229538,-6995.0
18912.525143726776,-10839.0
18912.525206224014,-14483.0
18912.52526872125,-17590.0
18912.525331218487,-20187.0
18912.525393715725,-21954.0
18912.525456212963,-22981.0
18912.525518710198,-23200.0
18912.525581207436,-23241.0
18912.525643704674,-23810.0
18912.52570620191,-24139.0
18912.525768699146,-24345.0
18912.525831196384,-25114.0
18912.525893693622,-26025.0
18912.52595619086,-26270.0
18912.526018688095,-26179.0
18912.526081185333,-26529.0
18912.52614368257,-26007.0
18912.52620617981,-24726.0
18912.526268677044,-23781.0
18912.526331174282,-19828.0
18912.52639367152,-12300.0
18912.526456168758,-4198.0
18912.526518665993,3105.0
18912.52658116323,8921.0
18912.52664366047,13737.0
18912.526706157703,14945.0
18912.52676865494,14179.0
18912.52683115218,14832.0
18912.526893649418,12835.0
18912.526956146656,9868.0
18912.52701864389,8206.0
18912.52708114113,6334.0
18912.527143638366,4618.0
18912.5272061356,4045.0
18912.52726863284,5067.0
18912.527331130077,4282.0
18912.527393627315,2409.0
18912.52745612455,1096.0
18912.527518621788,-1044.0
18912.527581119026,-2494.0
18912.527643616264,-2377.0
18912.5277061135,-583.0
18912.527768610737,997.0
18912.527831107975,2956.0
18912.527893605213,6391.0
18912.527956102447,8685.0
18912.528018599685,11303.0
18912.528081096923,14051.0
18912.52814359416,15434.0
18912.528206091396,15667.0
18912.528268588634,14350.0
18912.528331085872,13070.0
18912.52839358311,11613.0
18912.528456080345,9981.0
18912.528518577583,8885.0
18912.52858107482,7552.0
18912.528643572055,6216.0
18912.528706069294,4770.0
18912.52876856653,3684.0
18912.52883106377,2798.0
18912.528893561004,1917.0
18912.528956058242,1448.0
18912.52901855548,549.0
18912.52908105272,462.0
18912.529143549953,1636.0
18912.52920604719,2994.0
18912.52926854443,4961.0
18912.529331041667,7401.0
18912.5293935389,9426.0
18912.52945603614,11135.0
18912.529518533378,13257.0
18912.529581030616,15091.0
18912.52964352785,16172.0
18912.52970602509,16640.0
18912.529768522327,16171.0
18912.529831019565,14744.0
18912.5298935168,12778.0
18912.529956014037,11248.0
18912.530018511276,9819.0
18912.530081008514,8226.0
18912.530143505748,7100.0
18912.530206002986,5967.0
18912.530268500224,4925.0
18912.530330997462,4860.0
18912.530393494697,5321.0
18912.530455991935,5373.0
18912.530518489173,5369.0
18912.530580986408,5201.0
18912.530643483646,4314.0
18912.530705980884,3472.0
18912.530768478122,3308.0
18912.530830975356,3287.0
18912.530893472594,2842.0
18912.530955969833,2244.0
18912.53101846707,1145.0
18912.531080964305,-738.0
18912.531143461543,-2823.0
18912.53120595878,-5291.0
18912.53126845602,-8497.0
18912.531330953254,-12215.0
18912.531393450492,-16299.0
18912.53145594773,-19753.0
18912.53151844497,-21568.0
18912.531580942203,-22680.0
18912.53164343944,-23167.0
18912.53170593668,-22674.0
18912.531768433917,-23051.0
18912.53183093115,-24139.0
18912.53189342839,-24488.0
18912.531955925628,-24728.0
18912.532018422862,-25653.0
18912.5320809201,-26347.0
18912.53214341734,-26324.0
18912.532205914576,-26986.0
18912.532268411815,-27394.0
18912.53233090905,-26315.0
18912.532393406287,-24664.0
18912.532455903525,-21171.0
18912.53251840076,-14396.0
18912.532580897998,-6054.0
18912.532643395236,1404.0
18912.532705892474,7342.0
18912.53276838971,12449.0
18912.532830886947,14875.0
18912.532893384185,14912.0
18912.532955881423,15595.0
18912.533018378657,14565.0
18912.533080875895,11572.0
18912.533143373133,9462.0
18912.53320587037,7793.0
18912.533268367606,6373.0
18912.533330864844,5646.0
18912.533393362082,5970.0
18912.53345585932,5492.0
18912.533518356555,3294.0
18912.533580853793,1473.0
18912.53364335103,-453.0
18912.53370584827,-2217.0
18912.533768345504,-2565.0
18912.53383084274,-1641.0
18912.53389333998,-239.0
18912.533955837214,1681.0
18912.534018334452,4890.0
18912.53408083169,8091.0
18912.53414332893,11000.0
18912.534205826167,13789.0
18912.5342683234,15387.0
18912.53433082064,15851.0
18912.534393317877,15195.0
18912.534455815112,13901.0
18912.53451831235,12501.0
18912.534580809588,10854.0
18912.534643306826,9540.0
18912.53470580406,8102.0
18912.5347683013,6614.0
18912.534830798537,5575.0
18912.534893295775,4600.0
18912.53495579301,3831.0
18912.535018290248,3260.0
18912.535080787486,2642.0
18912.535143284724,2055.0
18912.53520578196,2077.0
18912.535268279196,2789.0
18912.535330776434,4089.0
18912.535393273673,6141.0
18912.535455770907,7790.0
18912.535518268145,9276.0
18912.535580765383,11046.0
18912.53564326262,12509.0
18912.535705759856,13695.0
18912.535768257094,14337.0
18912.535830754332,14483.0
18912.535893251566,13562.0
18912.535955748805,11826.0
18912.536018246043,10699.0
18912.53608074328,9461.0
18912.536143240515,7888.0
18912.536205737753,7328.0
18912.53626823499,7170.0
18912.53633073223,6358.0
18912.536393229464,5927.0
18912.536455726702,6302.0
18912.53651822394,6346.0
18912.53658072118,5950.0
18912.536643218413,5918.0
18912.53670571565,5739.0
18912.53676821289,4555.0
18912.536830710127,3806.0
18912.53689320736,3906.0
18912.5369557046,3447.0
18912.537018201838,2732.0
18912.537080699076,2294.0
18912.53714319631,1043.0
18912.53720569355,-1397.0
18912.537268190787,-3849.0
18912.537330688025,-6324.0
18912.53739318526,-9731.0
18912.537455682497,-13522.0
18912.537518179735,-16887.0
18912.537580676973,-19850.0
18912.537643174208,-22135.0
18912.537705671446,-22993.0
18912.537768168684,-22535.0
18912.53783066592,-22288.0
18912.537893163157,-22744.0
18912.537955660395,-22871.0
18912.538018157633,-23483.0
18912.538080654867,-24489.0
18912.538143152105,-24595.0
18912.538205649344,-24912.0
18912.53826814658,-25539.0
18912.538330643816,-25818.0
18912.538393141054,-25561.0
18912.538455638292,-24987.0
18912.53851813553,-23502.0
18912.538580632765,-19161.0
18912.538643130003,-12702.0
18912.53870562724,-5176.0
18912.53876812448,2353.0
18912.538830621714,7693.0
18912.53889311895,11475.0
18912.53895561619,13778.0
18912.539018113428,14233.0
18912.539080610662,14237.0
18912.5391431079,12851.0
18912.53920560514,10667.0
18912.539268102373,9120.0
18912.53933059961,7429.0
18912.53939309685,6479.0
18912.539455594087,6281.0
18912.539518091326,6184.0
18912.53958058856,5474.0
18912.539643085798,3541.0
18912.539705583036,1741.0
18912.53976808027,-288.0
18912.53983057751,-1725.0
18912.539893074747,-1654.0
18912.539955571985,-757.0
18912.54001806922,922.0
18912.540080566458,2789.0
18912.540143063696,5487.0
18912.540205560934,8472.0
18912.54026805817,10868.0
18912.540330555406,13089.0
18912.540393052645,14211.0
18912.540455549883,14319.0
18912.540518047117,13723.0
18912.540580544355,12519.0
18912.540643041593,11507.0
18912.54070553883,10339.0
18912.540768036066,8977.0
18912.540830533304,7702.0
18912.540893030542,6478.0
18912.54095552778,5232.0
18912.541018025015,4154.0
18912.541080522253,3473.0
18912.54114301949,2900.0
18912.541205516725,2266.0
18912.541268013963,1506.0
18912.5413305112,1485.0
18912.54139300844,2897.0
18912.541455505674,4550.0
18912.541518002912,6616.0
18912.54158050015,8987.0
18912.54164299739,10236.0
18912.541705494623,11153.0
18912.54176799186,12535.0
18912.5418304891,13287.0
18912.541892986337,13350.0
18912.54195548357,13116.0
18912.54201798081,12186.0
18912.542080478048,10498.0
18912.542142975286,8781.0
18912.54220547252,8062.0
18912.54226796976,7681.0
18912.542330466997,7081.0
18912.542392964235,7123.0
18912.54245546147,7165.0
18912.542517958707,6871.0
18912.542580455945,7018.0
18912.542642953184,7444.0
18912.542705450418,7318.0
18912.542767947656,6604.0
18912.542830444894,6004.0
18912.542892942132,5439.0
18912.542955439367,4439.0
18912.543017936605,3515.0
18912.543080433843,3244.0
18912.543142931077,2515.0
18912.543205428316,727.0
18912.543267925554,-1021.0
18912.54333042279,-2924.0
18912.543392920026,-5929.0
18912.543455417264,-8996.0
18912.543517914502,-11498.0
18912.54358041174,-14953.0
18912.543642908975,-18644.0
18912.543705406213,-20359.0
18912.54376790345,-21160.0
18912.54383040069,-22378.0
18912.543892897924,-22332.0
18912.543955395162,-21881.0
18912.5440178924,-22841.0
18912.544080389638,-23409.0
18912.544142886873,-23377.0
18912.54420538411,-23963.0
18912.54426788135,-24876.0
18912.544330378587,-25331.0
18912.54439287582,-25565.0
18912.54445537306,-26313.0
18912.544517870298,-26398.0
18912.544580367532,-25488.0
18912.54464286477,-23864.0
18912.54470536201,-19691.0
18912.544767859246,-12522.0
18912.544830356484,-5299.0
18912.54489285372,1034.0
18912.544955350957,7265.0
18912.545017848195,11512.0
18912.54508034543,13105.0
18912.545142842668,14294.0
18912.545205339906,15030.0
18912.545267837144,13521.0
18912.54533033438,11419.0
18912.545392831616,10227.0
18912.545455328855,8515.0
18912.545517826093,6861.0
18912.545580323327,6541.0
18912.545642820565,6356.0
18912.545705317803,4483.0
18912.54576781504,2131.0
18912.545830312276,638.0
18912.545892809514,-1445.0
18912.545955306752,-3031.0
18912.54601780399,-2548.0
18912.546080301225,-1175.0
18912.546142798463,246.0
18912.5462052957,2366.0
18912.54626779294,5529.0
18912.546330290174,8475.0
18912.54639278741,11114.0
18912.54645528465,13723.0
18912.546517781884,15225.0
18912.546580279122,15078.0
18912.54664277636,14148.0
18912.5467052736,13263.0
18912.546767770833,12119.0
18912.54683026807,10698.0
18912.54689276531,9307.0
18912.546955262547,7714.0
18912.54701775978,6025.0
18912.54708025702,4226.0
18912.547142754258,2813.0
18912.547205251496,2302.0
18912.54726774873,1789.0
18912.54733024597,986.0
18912.547392743207,795.0
18912.547455240445,1522.0
18912.54751773768,2880.0
18912.547580234917,4738.0
18912.547642732156,7045.0
18912.547705229394,9018.0
18912.547767726628,10211.0
18912.547830223866,10975.0
18912.547892721104,11762.0
18912.547955218342,12246.0
18912.548017715577,12016.0
18912.548080212815,11575.0
18912.548142710053,10971.0
18912.54820520729,9879.0
18912.548267704526,8965.0
18912.548330201764,8862.0
18912.548392699002,8869.0
18912.548455196236,8392.0
18912.548517693474,8160.0
18912.548580190713,8010.0
18912.54864268795,7516.0
18912.548705185185,7250.0
18912.548767682423,7040.0
18912.54883017966,6843.0
18912.5488926769,6506.0
18912.548955174134,5800.0
18912.549017671372,5158.0
18912.54908016861,4583.0
18912.54914266585,3835.0
18912.549205163083,2905.0
18912.54926766032,1631.0
18912.54933015756,-53.0
18912.549392654797,-1986.0
18912.54945515203,-4242.0
18912.54951764927,-6472.0
18912.549580146508,-8720.0
18912.549642643746,-11725.0
18912.54970514098,-14927.0
18912.54976763822,-17596.0
18912.549830135456,-19630.0
18912.54989263269,-20946.0
18912.54995512993,-21866.0
18912.550017627167,-22019.0
18912.550080124405,-22233.0
18912.550142621643,-23450.0
18912.550205118878,-23789.0
18912.550267616116,-23936.0
18912.550330113354,-25364.0
18912.55039261059,-25955.0
18912.550455107827,-26264.0
18912.550517605065,-27212.0
18912.550580102303,-27471.0
18912.550642599537,-27457.0
18912.550705096775,-26919.0
18912.550767594013,-24902.0
18912.55083009125,-19612.0
18912.550892588486,-10654.0
18912.550955085724,-2062.0
18912.551017582962,4769.0
18912.5510800802,10933.0
18912.551142577435,14507.0
18912.551205074673,14798.0
18912.55126757191,15377.0
18912.55133006915,15631.0
18912.551392566384,13412.0
18912.55145506362,10874.0
18912.55151756086,8748.0
18912.551580058098,7166.0
18912.551642555332,5650.0
18912.55170505257,4921.0
18912.55176754981,5368.0
18912.551830047043,3738.0
18912.55189254428,999.0
18912.55195504152,-919.0
18912.552017538757,-2715.0
18912.552080035992,-3826.0
18912.55214253323,-3108.0
18912.552205030468,-838.0
18912.552267527706,1172.0
18912.55233002494,3416.0
18912.55239252218,6631.0
18912.552455019417,10033.0
18912.552517516655,12992.0
18912.55258001389,15139.0
18912.552642511127,16621.0
18912.552705008366,16309.0
18912.552767505604,14617.0
18912.552830002838,13278.0
18912.552892500076,11758.0
18912.552954997314,10066.0
18912.553017494552,8406.0
18912.553079991787,6637.0
18912.553142489025,5161.0
18912.553204986263,3597.0
18912.5532674835,2522.0
18912.553329980736,2106.0
18912.553392477974,1464.0
18912.553454975212,829.0
18912.55351747245,679.0
18912.553579969685,1836.0
18912.553642466923,4084.0
18912.55370496416,6335.0
18912.553767461395,8400.0
18912.553829958633,10142.0
18912.55389245587,11295.0
18912.55395495311,11864.0
18912.554017450344,12717.0
18912.554079947582,13539.0
18912.55414244482,13190.0
18912.55420494206,12238.0
18912.554267439293,11264.0
18912.55432993653,10062.0
18912.55439243377,8719.0
18912.554454931007,8128.0
18912.55451742824,8262.0
18912.55457992548,7900.0
18912.554642422718,7357.0
18912.554704919956,7225.0
18912.55476741719,7049.0
18912.55482991443,6863.0
18912.554892411667,6780.0
18912.554954908905,6489.0
18912.55501740614,5813.0
18912.555079903377,4971.0
18912.555142400615,4206.0
18912.55520489785,3497.0
18912.555267395088,2980.0
18912.555329892326,2448.0
18912.555392389564,1475.0
18912.555454886802,-85.0
18912.555517384037,-2413.0
18912.555579881275,-5073.0
18912.555642378513,-8021.0
18912.555704875747,-11321.0
18912.555767372985,-14714.0
18912.555829870224,-18209.0
18912.55589236746,-20776.0
18912.555954864696,-22266.0
18912.556017361934,-23396.0
18912.556079859172,-23548.0
18912.55614235641,-23361.0
18912.556204853645,-23699.0
18912.556267350883,-23980.0
18912.55632984812,-24436.0
18912.55639234536,-25011.0
18912.556454842594,-25520.0
18912.55651733983,-25935.0
18912.55657983707,-26206.0
18912.556642334308,-26604.0
18912.556704831542,-26636.0
18912.55676732878,-26090.0
18912.55682982602,-24262.0
18912.556892323257,-19000.0
18912.55695482049,-10118.0
18912.55701731773,-1186.0
18912.557079814967,5504.0
18912.557142312202,11650.0
18912.55720480944,15668.0
18912.557267306678,15624.0
18912.557329803916,15691.0
18912.557392301154,15682.0
18912.55745479839,13080.0
18912.557517295627,9881.0
18912.557579792865,7099.0
18912.5576422901,5632.0
18912.557704787338,4312.0
18912.557767284576,3877.0
18912.557829781814,5412.0
18912.55789227905,4407.0
18912.557954776286,2000.0
18912.558017273524,346.0
18912.558079770763,-1410.0
18912.558142267997,-2219.0
18912.558204765235,-1851.0
18912.558267262473,-39.0
18912.55832975971,1677.0
18912.558392256946,3558.0
18912.558454754184,6591.0
18912.558517251422,9808.0
18912.55857974866,13180.0
18912.558642245895,15342.0
18912.558704743133,16473.0
18912.55876724037,16262.0
18912.55882973761,14234.0
18912.558892234843,12487.0
18912.55895473208,11077.0
18912.55901722932,9677.0
18912.559079726554,7961.0
18912.559142223792,6063.0
18912.55920472103,4828.0
18912.55926721827,3567.0
18912.559329715503,2706.0
18912.55939221274,2597.0
18912.55945470998,2406.0
18912.559517207217,1896.0
18912.55957970445,1353.0
18912.55964220169,1639.0
18912.559704698928,3066.0
18912.559767196166,5305.0
18912.5598296934,7702.0
18912.55989219064,9754.0
18912.559954687877,11642.0
18912.560017185115,12583.0
18912.56007968235,13147.0
18912.560142179587,14141.0
18912.560204676825,13828.0
18912.560267174063,12513.0
18912.560329671298,11363.0
18912.560392168536,10005.0
18912.560454665774,8353.0
18912.560517163012,7436.0
18912.560579660247,7875.0
18912.560642157485,7947.0
18912.560704654723,7509.0
18912.56076715196,7491.0
18912.560829649196,7372.0
18912.560892146434,7036.0
18912.56095464367,6672.0
18912.561017140906,6696.0
18912.561079638144,6056.0
18912.561142135382,4923.0
18912.56120463262,4424.0
18912.561267129855,3869.0
18912.561329627093,3525.0
18912.56139212433,3275.0
18912.56145462157,2624.0
18912.561517118804,1203.0
18912.561579616042,-895.0
18912.56164211328,-3179.0
18912.561704610518,-6102.0
18912.561767107753,-9372.0
18912.56182960499,-12750.0
18912.56189210223,-16336.0
18912.561954599467,-19436.0
18912.5620170967,-21169.0
18912.56207959394,-22318.0
18912.562142091178,-23282.0
18912.562204588416,-22833.0
18912.56226708565,-22654.0
18912.56232958289,-23451.0
18912.562392080126,-23847.0
18912.56245457736,-24657.0
18912.5625170746,-25917.0
18912.562579571837,-26733.0
18912.562642069075,-27015.0
18912.562704566313,-27369.0
18912.562767063548,-27398.0
18912.562829560786,-26759.0
18912.562892058024,-25476.0
18912.56295455526,-22020.0
18912.563017052496,-14971.0
18912.563079549735,-5687.0
18912.563142046973,1969.0
18912.563204544207,8070.0
18912.563267041445,13301.0
18912.563329538683,14891.0
18912.56339203592,15311.0
18912.563454533156,16098.0
18912.563517030394,14735.0
18912.563579527632,12193.0
18912.56364202487,9556.0
18912.563704522105,7445.0
18912.563767019343,5767.0
18912.56382951658,4758.0
18912.56389201382,5386.0
18912.563954511053,4704.0
18912.56401700829,2466.0
18912.56407950553,556.0
18912.564142002768,-1572.0
18912.564204500002,-2682.0
18912.56426699724,-2503.0
18912.56432949448,-1280.0
18912.564391991713,418.0
18912.56445448895,2205.0
18912.56451698619,5154.0
18912.564579483427,8287.0
18912.56464198066,11664.0
18912.5647044779,14579.0
18912.564766975138,16000.0
18912.564829472376,16338.0
18912.56489196961,15150.0
18912.56495446685,13583.0
18912.565016964087,11980.0
18912.565079461325,10693.0
18912.56514195856,9479.0
18912.565204455797,7301.0
18912.565266953035,5617.0
18912.565329450274,4160.0
18912.565391947508,2837.0
18912.565454444746,2241.0
18912.565516941984,1736.0
18912.565579439222,1089.0
18912.565641936457,322.0
18912.565704433695,392.0
18912.565766930933,1491.0
18912.56582942817,3309.0
18912.565891925406,5695.0
18912.565954422644,8017.0
18912.56601691988,10419.0
18912.56607941712,12630.0
18912.566141914354,14121.0
18912.566204411592,15162.0
18912.56626690883,15479.0
18912.566329406065,14380.0
18912.566391903303,12550.0
18912.56645440054,10855.0
18912.56651689778,8998.0
18912.566579395014,7256.0
18912.566641892252,6422.0
18912.56670438949,6240.0
18912.566766886728,5761.0
18912.566829383963,5649.0
18912.5668918812,6508.0
18912.56695437844,6905.0
18912.567016875677,6622.0
18912.56707937291,6674.0
18912.56714187015,6507.0
18912.567204367388,5601.0
18912.567266864626,5044.0
18912.56732936186,5043.0
18912.5673918591,4532.0
18912.567454356336,3715.0
18912.567516853574,2940.0
18912.56757935081,1692.0
18912.567641848047,-452.0
18912.567704345285,-3138.0
18912.56776684252,-5912.0
18912.567829339758,-9290.0
18912.567891836996,-13297.0
18912.567954334234,-17299.0
18912.568016831472,-20434.0
18912.568079328707,-22341.0
18912.568141825945,-23413.0
18912.568204323183,-23488.0
18912.568266820417,-22567.0
18912.568329317655,-22259.0
18912.568391814893,-22841.0
18912.56845431213,-23181.0
18912.568516809366,-23970.0
18912.568579306604,-25392.0
18912.568641803842,-26386.0
18912.56870430108,-26884.0
18912.568766798315,-27449.0
18912.568829295553,-27946.0
18912.56889179279,-27341.0
18912.56895429003,-25755.0
18912.569016787264,-22489.0
18912.5690792845,-15437.0
18912.56914178174,-6422.0
18912.569204278978,909.0
18912.569266776212,6834.0
18912.56932927345,12569.0
18912.56939177069,15041.0
18912.569454267927,15159.0
18912.56951676516,16416.0
18912.5695792624,15671.0
18912.569641759637,12704.0
18912.56970425687,9988.0
18912.56976675411,7792.0
18912.569829251348,6139.0
18912.569891748586,4801.0
18912.56995424582,4889.0
18912.57001674306,4284.0
18912.570079240297,1816.0
18912.570141737535,-313.0
18912.57020423477,-2157.0
18912.570266732007,-3511.0
18912.570329229246,-3647.0
18912.570391726484,-2225.0
18912.570454223718,-518.0
18912.570516720956,1311.0
18912.570579218194,4592.0
18912.570641715432,7984.0
18912.570704212667,11339.0
18912.570766709905,14385.0
18912.570829207143,16040.0
18912.57089170438,16248.0
18912.570954201616,14947.0
18912.571016698854,13389.0
18912.571079196092,11956.0
18912.57114169333,10368.0
18912.571204190564,8838.0
18912.571266687803,6967.0
18912.57132918504,5236.0
18912.57139168228,3924.0
18912.571454179513,2957.0
18912.57151667675,2159.0
18912.57157917399,1493.0
18912.571641671224,831.0
18912.571704168462,-80.0
18912.5717666657,-93.0
18912.57182916294,1472.0
18912.571891660173,3758.0
18912.57195415741,6025.0
18912.57201665465,8510.0
18912.572079151887,10701.0
18912.57214164912,11703.0
18912.57220414636,13129.0
18912.572266643598,14389.0
18912.572329140836,14064.0
18912.57239163807,13205.0
18912.57245413531,12007.0
18912.572516632546,10223.0
18912.572579129785,8168.0
18912.57264162702,7262.0
18912.572704124257,6989.0
18912.572766621495,6255.0
18912.572829118733,6033.0
18912.572891615968,5881.0
18912.572954113206,5720.0
18912.573016610444,6139.0
18912.57307910768,7126.0
18912.573141604917,7741.0
18912.573204102155,7601.0
18912.573266599393,7412.0
18912.57332909663,6708.0
18912.573391593865,5758.0
18912.573454091103,5035.0
18912.57351658834,4431.0
18912.573579085576,3535.0
18912.573641582814,1808.0
18912.573704080052,-373.0
18912.57376657729,-2780.0
18912.573829074525,-5441.0
18912.573891571763,-8160.0
18912.573954069,-10694.0
18912.57401656624,-14057.0
18912.574079063474,-17646.0
18912.57414156071,-20122.0
18912.57420405795,-22081.0
18912.574266555188,-22898.0
18912.574329052422,-22878.0
18912.57439154966,-22931.0
18912.5744540469,-22855.0
18912.574516544137,-23441.0
18912.57457904137,-24358.0
18912.57464153861,-24875.0
18912.574704035847,-25326.0
18912.574766533085,-25784.0
18912.57482903032,-25700.0
18912.574891527558,-25500.0
18912.574954024796,-25831.0
18912.57501652203,-25553.0
18912.57507901927,-23736.0
18912.575141516507,-19302.0
18912.575204013745,-11500.0
18912.57526651098,-3190.0
18912.575329008218,3386.0
18912.575391505456,8583.0
18912.575454002694,11861.0
18912.57551649993,12700.0
18912.575578997166,13402.0
18912.575641494404,14025.0
18912.575703991643,12630.0
18912.575766488877,10763.0
18912.575828986115,9062.0
18912.575891483353,7397.0
18912.57595398059,6590.0
18912.576016477826,6698.0
18912.576078975064,6851.0
18912.576141472302,4961.0
18912.57620396954,2490.0
18912.576266466775,300.0
18912.576328964013,-2007.0
18912.57639146125,-2800.0
18912.57645395849,-2411.0
18912.576516455723,-1224.0
18912.57657895296,244.0
18912.5766414502,2412.0
18912.576703947438,5606.0
18912.576766444672,8411.0
18912.57682894191,11549.0
18912.57689143915,13988.0
18912.576953936383,14824.0
18912.57701643362,14615.0
18912.57707893086,13628.0
18912.577141428097,12616.0
18912.57720392533,11407.0
18912.57726642257,10290.0
18912.577328919808,8887.0
18912.577391417046,7049.0
18912.57745391428,5644.0
18912.57751641152,4356.0
18912.577578908757,3412.0
18912.577641405995,2491.0
18912.57770390323,1836.0
18912.577766400467,1269.0
18912.577828897705,464.0
18912.577891394943,1391.0
18912.577953892178,3684.0
18912.578016389416,6298.0
18912.578078886654,8967.0
18912.578141383892,11050.0
18912.578203881127,12446.0
18912.578266378365,12859.0
18912.578328875603,13252.0
18912.578391372837,13710.0
18912.578453870075,13112.0
18912.578516367314,11811.0
18912.57857886455,10625.0
18912.57864136179,9366.0
18912.578703859024,7978.0
18912.578766356262,7731.0
18912.5788288535,7942.0
18912.578891350735,7407.0
18912.578953847973,7168.0
18912.57901634521,7075.0
18912.57907884245,6385.0
18912.579141339684,5832.0
18912.57920383692,5960.0
18912.57926633416,6107.0
18912.579328831398,5773.0
18912.579391328632,5542.0
18912.57945382587,5204.0
18912.57951632311,4437.0
18912.579578820347,3786.0
18912.57964131758,3197.0
18912.57970381482,1645.0
18912.579766312057,-820.0
18912.579828809296,-3233.0
18912.57989130653,-6343.0
18912.579953803768,-10001.0
18912.580016301006,-13275.0
18912.580078798244,-16705.0
18912.58014129548,-19898.0
18912.580203792717,-22195.0
18912.580266289955,-23479.0
18912.58032878719,-24146.0
18912.580391284428,-24313.0
18912.580453781666,-23757.0
18912.580516278904,-23749.0
18912.580578776142,-24219.0
18912.580641273376,-24186.0
18912.580703770614,-24566.0
18912.580766267853,-25327.0
18912.580828765087,-25328.0
18912.580891262325,-25379.0
18912.580953759563,-26048.0
18912.5810162568,-25734.0
18912.581078754036,-24044.0
18912.581141251274,-19664.0
18912.581203748512,-10712.0
18912.58126624575,-902.0
18912.581328742985,5839.0
18912.581391240223,11145.0
18912.58145373746,14783.0
18912.5815162347,14937.0
18912.581578731933,14484.0
18912.58164122917,14225.0
18912.58170372641,12176.0
18912.581766223648,8604.0
18912.581828720882,5591.0
18912.58189121812,4573.0
18912.58195371536,3619.0
18912.582016212596,3792.0
18912.58207870983,5701.0
18912.58214120707,4978.0
18912.582203704307,2490.0
18912.58226620154,732.0
18912.58232869878,-735.0
18912.582391196018,-1746.0
18912.582453693256,-1360.0
18912.58251619049,534.0
18912.58257868773,2028.0
18912.582641184967,3732.0
18912.582703682205,6727.0
18912.58276617944,10052.0
18912.582828676677,13261.0
18912.582891173915,15636.0
18912.582953671154,16710.0
18912.583016168388,15661.0
18912.583078665626,13427.0
18912.583141162864,11750.0
18912.583203660102,10297.0
18912.583266157337,9106.0
18912.583328654575,7563.0
18912.583391151813,5803.0
18912.58345364905,4407.0
18912.583516146286,3129.0
18912.583578643524,2640.0
18912.58364114076,2580.0
18912.583703638,2270.0
18912.583766135234,1757.0
18912.583828632472,1408.0
18912.58389112971,2141.0
18912.58395362695,4059.0
18912.584016124183,6582.0
18912.58407862142,9135.0
18912.58414111866,11316.0
18912.584203615894,12690.0
18912.584266113132,13403.0
18912.58432861037,14168.0
18912.584391107608,14689.0
18912.584453604843,14235.0
18912.58451610208,12934.0
18912.58457859932,10977.0
18912.584641096557,8803.0
18912.58470359379,7047.0
18912.58476609103,5920.0
18912.584828588268,5810.0
18912.584891085506,6018.0
18912.58495358274,5771.0
18912.58501607998,5936.0
18912.585078577216,6308.0
18912.585141074454,6584.0
18912.58520357169,7087.0
18912.585266068927,7347.0
18912.585328566165,7080.0
18912.585391063403,6151.0
18912.585453560638,5121.0
18912.585516057876,4440.0
18912.585578555114,3542.0
18912.58564105235,2742.0
18912.585703549586,1761.0
18912.585766046825,-127.0
18912.585828544063,-2372.0
18912.5858910413,-5052.0
18912.585953538535,-8287.0
18912.586016035773,-11679.0
18912.58607853301,-15418.0
18912.586141030246,-19139.0
18912.586203527484,-21915.0
18912.586266024722,-23511.0
18912.58632852196,-24193.0
18912.586391019195,-24147.0
18912.586453516433,-24293.0
18912.58651601367,-24654.0
18912.58657851091,-25005.0
18912.586641008143,-25666.0
18912.58670350538,-25959.0
18912.58676600262,-26443.0
18912.586828499858,-26682.0
18912.586890997092,-26323.0
18912.58695349433,-26526.0
18912.58701599157,-25943.0
18912.587078488807,-24666.0
18912.58714098604,-21646.0
18912.58720348328,-13681.0
18912.587265980517,-3929.0
18912.587328477755,3314.0
18912.58739097499,9380.0
18912.587453472228,13987.0
18912.587515969466,14825.0
18912.5875784667,14748.0
18912.58764096394,14987.0
18912.587703461177,13407.0
18912.587765958415,10413.0
18912.58782845565,7328.0
18912.587890952887,5477.0
18912.587953450125,3978.0
18912.588015947364,3373.0
18912.588078444598,4781.0
18912.588140941836,4650.0
18912.588203439074,2698.0
18912.588265936312,744.0
18912.588328433547,-1330.0
18912.588390930785,-2623.0
18912.588453428023,-2313.0
18912.58851592526,-639.0
18912.588578422496,1156.0
18912.588640919734,3039.0
18912.588703416972,5681.0
18912.58876591421,8772.0
18912.588828411444,11930.0
18912.588890908683,14504.0
18912.58895340592,15996.0
18912.58901590316,15918.0
18912.589078400393,14459.0
18912.58914089763,12731.0
18912.58920339487,11105.0
18912.589265892108,9867.0
18912.589328389342,8598.0
18912.58939088658,6823.0
18912.58945338382,5258.0
18912.589515881053,4131.0
18912.58957837829,3333.0
18912.58964087553,2779.0
18912.589703372767,2344.0
18912.58976587,1613.0
18912.58982836724,880.0
18912.589890864478,1203.0
18912.589953361716,2737.0
18912.59001585895,5137.0
18912.59007835619,7810.0
18912.590140853426,10524.0
18912.590203350665,12550.0
18912.5902658479,13331.0
18912.590328345137,14247.0
18912.590390842375,14728.0
18912.590453339613,13748.0
18912.590515836848,12520.0
18912.590578334086,10958.0
18912.590640831324,8941.0
18912.590703328562,7463.0
18912.590765825797,7178.0
18912.590828323035,7411.0
18912.590890820273,7405.0
18912.590953317507,7703.0
18912.591015814745,7255.0
18912.591078311983,6089.0
18912.59114080922,5810.0
18912.59120330646,5826.0
18912.591265803694,5403.0
18912.591328300932,4975.0
18912.59139079817,5201.0
18912.591453295405,4756.0
18912.591515792643,3587.0
18912.59157828988,3586.0
18912.59164078712,3262.0
18912.591703284354,1231.0
18912.59176578159,-865.0
18912.59182827883,-2906.0
18912.591890776068,-6442.0
18912.591953273302,-10158.0
18912.59201577054,-12697.0
18912.59207826778,-15862.0
18912.592140765017,-19770.0
18912.59220326225,-22017.0
18912.59226575949,-23154.0
18912.592328256727,-25001.0
18912.592390753965,-25544.0
18912.5924532512,-24890.0
18912.592515748438,-25614.0
18912.592578245676,-26531.0
18912.592640742914,-26619.0
18912.59270324015,-27185.0
18912.592765737387,-27931.0
18912.592828234625,-27532.0
18912.59289073186,-26754.0
18912.592953229097,-26456.0
18912.593015726336,-25671.0
18912.593078223574,-23642.0
18912.593140720808,-18651.0
18912.593203218046,-10169.0
18912.593265715284,-1653.0
18912.593328212522,5734.0
18912.593390709757,11912.0
18912.593453206995,14576.0
18912.593515704233,15306.0
18912.59357820147,15675.0
18912.593640698706,14576.0
18912.593703195944,12430.0
18912.593765693182,9406.0
18912.59382819042,6285.0
18912.593890687654,3948.0
18912.593953184893,2794.0
18912.59401568213,3379.0
18912.59407817937,3785.0
18912.594140676603,3182.0
18912.59420317384,1984.0
18912.59426567108,-119.0
18912.594328168318,-1724.0
18912.594390665552,-1964.0
18912.59445316279,-1076.0
18912.59451566003,413.0
18912.594578157266,2162.0
18912.5946406545,4571.0
18912.59470315174,7243.0
18912.594765648977,10301.0
18912.59482814621,13237.0
18912.59489064345,15435.0
18912.594953140688,16464.0
18912.595015637926,15615.0
18912.59507813516,13709.0
18912.5951406324,11692.0
18912.595203129637,10001.0
18912.595265626875,8310.0
18912.59532812411,6598.0
18912.595390621347,5298.0
18912.595453118585,3755.0
18912.595515615823,2715.0
18912.595578113058,2247.0
18912.595640610296,2278.0
18912.595703107534,2583.0
18912.595765604772,2356.0
18912.595828102007,3043.0
18912.595890599245,4757.0
18912.595953096483,6669.0
18912.59601559372,8628.0
18912.596078090955,10870.0
18912.596140588194,12576.0
18912.59620308543,12543.0
18912.596265582666,12820.0
18912.596328079904,13287.0
18912.596390577142,12219.0
18912.59645307438,11001.0
18912.59651557162,10418.0
18912.596578068853,8935.0
18912.59664056609,6928.0
18912.59670306333,6651.0
18912.596765560564,6803.0
18912.5968280578,6502.0
18912.59689055504,6919.0
18912.596953052278,7310.0
18912.597015549512,6907.0
18912.59707804675,6534.0
18912.59714054399,7061.0
18912.597203041227,7139.0
18912.59726553846,6581.0
18912.5973280357,6683.0
18912.597390532937,6445.0
18912.597453030176,5244.0
18912.59751552741,4158.0
18912.597578024648,3468.0
18912.597640521886,1707.0
18912.597703019124,-723.0
18912.59776551636,-3147.0
18912.597828013597,-6416.0
18912.597890510835,-9581.0
18912.597953008073,-12496.0
18912.598015505308,-15589.0
18912.598078002546,-18521.0
18912.598140499784,-20657.0
18912.59820299702,-21865.0
18912.598265494256,-23352.0
18912.598327991494,-24085.0
18912.598390488733,-24032.0
18912.59845298597,-25082.0
18912.598515483205,-25823.0
18912.598577980443,-26013.0
18912.59864047768,-27561.0
18912.598702974916,-29030.0
18912.598765472154,-28661.0
18912.598827969392,-28194.0
18912.59889046663,-28164.0
18912.598952963865,-26597.0
18912.599015461103,-24604.0
18912.59907795834,-21730.0
18912.59914045558,-13531.0
18912.599202952813,-3470.0
18912.59926545005,3640.0
18912.59932794729,10758.0
18912.599390444528,15956.0
18912.599452941762,16368.0
18912.599515439,16274.0
18912.59957793624,16801.0
18912.599640433476,15445.0
18912.59970293071,12057.0
18912.59976542795,9290.0
18912.599827925187,7269.0
18912.599890422425,4067.0
18912.59995291966,2833.0
18912.600015416898,3692.0
18912.600077914136,2661.0
18912.60014041137,465.0
18912.60020290861,-1136.0
18912.600265405847,-2481.0
18912.600327903085,-3831.0
18912.60039040032,-3277.0
18912.600452897557,-904.0
18912.600515394795,1133.0
18912.600577892033,3180.0
18912.600640389268,6157.0
18912.600702886506,9640.0
18912.600765383744,12416.0
18912.600827880982,14799.0
18912.600890378217,16936.0
18912.600952875455,16878.0
18912.601015372693,15126.0
18912.60107786993,13483.0
18912.601140367165,11975.0
18912.601202864404,10185.0
18912.60126536164,8193.0
18912.60132785888,6579.0
18912.601390356114,5082.0
18912.601452853352,3373.0
18912.60151535059,2402.0
18912.60157784783,2265.0
18912.601640345063,2243.0
18912.6017028423,1765.0
18912.60176533954,1484.0
18912.601827836777,2352.0
18912.601890334012,3803.0
18912.60195283125,6025.0
18912.602015328488,8908.0
18912.602077825723,11148.0
18912.60214032296,12506.0
18912.6022028202,13304.0
18912.602265317437,13768.0
18912.60232781467,13860.0
18912.60239031191,13423.0
18912.602452809148,12515.0
18912.602515306386,10949.0
18912.60257780362,9092.0
18912.60264030086,7632.0
18912.602702798096,6751.0
18912.602765295334,6595.0
18912.60282779257,6994.0
18912.602890289807,7103.0
18912.602952787045,6861.0
18912.603015284283,6966.0
18912.603077781518,6948.0
18912.603140278756,6765.0
18912.603202775994,6810.0
18912.603265273232,6610.0
18912.603327770466,5811.0
18912.603390267705,4663.0
18912.603452764943,3898.0
18912.603515262177,3271.0
18912.603577759415,2119.0
18912.603640256653,650.0
18912.60370275389,-1285.0
18912.60376525113,-4139.0
18912.603827748364,-7479.0
18912.603890245602,-10446.0
18912.60395274284,-13735.0
18912.604015240075,-17401.0
18912.604077737313,-19953.0
18912.60414023455,-21582.0
18912.60420273179,-23035.0
18912.604265229023,-23705.0
18912.60432772626,-23624.0
18912.6043902235,-23924.0
18912.604452720738,-24674.0
18912.604515217972,-25179.0
18912.60457771521,-25943.0
18912.60464021245,-27139.0
18912.604702709687,-27963.0
18912.60476520692,-28032.0
18912.60482770416,-27976.0
18912.604890201397,-27950.0
18912.604952698635,-26646.0
18912.60501519587,-24963.0
18912.605077693108,-21489.0
18912.605140190346,-12857.0
18912.605202687584,-3361.0
18912.60526518482,3410.0
18912.605327682057,9898.0
18912.605390179295,14378.0
18912.60545267653,15155.0
18912.605515173767,15637.0
18912.605577671005,16001.0
18912.605640168244,14814.0
18912.605702665478,11980.0
18912.605765162716,8679.0
18912.605827659954,6918.0
18912.605890157192,4827.0
18912.605952654427,3799.0
18912.606015151665,4698.0
18912.606077648903,3610.0
18912.60614014614,1427.0
18912.606202643376,-549.0
18912.606265140614,-2308.0
18912.60632763785,-2972.0
18912.60639013509,-2255.0
18912.606452632324,-311.0
18912.606515129562,1705.0
18912.6065776268,3970.0
18912.60664012404,6618.0
18912.606702621273,9822.0
18912.60676511851,12932.0
18912.60682761575,15107.0
18912.606890112987,16546.0
18912.606952610222,15962.0
18912.60701510746,14118.0
18912.607077604698,12171.0
18912.607140101936,10162.0
18912.60720259917,8843.0
18912.60726509641,6892.0
18912.607327593647,4931.0
18912.60739009088,3911.0
18912.60745258812,2766.0
18912.607515085358,2249.0
18912.607577582596,2371.0
18912.60764007983,2889.0
18912.60770257707,2882.0
18912.607765074306,2687.0
18912.607827571544,4551.0
18912.60789006878,6558.0
18912.607952566017,8003.0
18912.608015063255,10180.0
18912.608077560493,11644.0
18912.608140057728,11755.0
18912.608202554966,11926.0
18912.608265052204,12799.0
18912.608327549442,12677.0
18912.608390046677,11625.0
18912.608452543915,11117.0
18912.608515041153,10102.0
18912.60857753839,8525.0
18912.608640035625,7703.0
18912.608702532863,7707.0
18912.6087650301,7577.0
18912.608827527336,7243.0
18912.608890024574,7482.0
18912.608952521812,7461.0
18912.60901501905,6958.0
18912.60907751629,7050.0
18912.609140013523,7282.0
18912.60920251076,6902.0
18912.609265008,6318.0
18912.609327505234,6122.0
18912.60939000247,5375.0
18912.60945249971,3930.0
18912.609514996948,3025.0
18912.609577494182,1920.0
18912.60963999142,-223.0
18912.60970248866,-2752.0
18912.609764985897,-5395.0
18912.60982748313,-8462.0
18912.60988998037,-11845.0
18912.609952477607,-14860.0
18912.610014974845,-17679.0
18912.61007747208,-20178.0
18912.610139969318,-21629.0
18912.610202466556,-22487.0
18912.610264963794,-23068.0
18912.61032746103,-23016.0
18912.610389958267,-23447.0
18912.610452455505,-24357.0
18912.610514952743,-24284.0
18912.610577449977,-24909.0
18912.610639947216,-26445.0
18912.610702444454,-26642.0
18912.610764941688,-26915.0
18912.610827438926,-27809.0
18912.610889936164,-27613.0
18912.610952433402,-26615.0
18912.611014930637,-25233.0
18912.611077427875,-21524.0
18912.611139925113,-13493.0
18912.61120242235,-4542.0
18912.611264919586,2323.0
18912.611327416824,9395.0
18912.611389914062,14234.0
18912.6114524113,15082.0
18912.611514908534,16117.0
18912.611577405773,16454.0
18912.61163990301,14864.0
18912.61170240025,12018.0
18912.611764897483,8789.0
18912.61182739472,6822.0
18912.61188989196,4630.0
18912.611952389198,3975.0
18912.612014886432,4539.0
18912.61207738367,3394.0
18912.61213988091,2018.0
18912.612202378146,-11.0
18912.61226487538,-1697.0
18912.61232737262,-2471.0
18912.612389869857,-2383.0
18912.612452367095,-590.0
18912.61251486433,1272.0
18912.612577361568,3875.0
18912.612639858806,6804.0
18912.61270235604,9866.0
18912.61276485328,13264.0
18912.612827350516,15328.0
18912.612889847755,16848.0
18912.61295234499,16508.0
18912.613014842227,14383.0
18912.613077339465,12431.0
18912.613139836703,10380.0
18912.613202333938,8713.0
18912.613264831176,6962.0
18912.613327328414,5464.0
18912.613389825652,4257.0
18912.613452322887,2743.0
18912.613514820125,2210.0
18912.613577317363,2335.0
18912.6136398146,2678.0
18912.613702311835,2647.0
18912.613764809073,2743.0
18912.61382730631,4488.0
18912.61388980355,6451.0
18912.613952300784,8428.0
18912.614014798022,11095.0
18912.61407729526,12937.0
18912.614139792495,13483.0
18912.614202289733,13907.0
18912.61426478697,14323.0
18912.61432728421,13802.0
18912.614389781447,12795.0
18912.61445227868,11844.0
18912.61451477592,10313.0
18912.614577273158,8505.0
18912.614639770392,7737.0
18912.61470226763,7676.0
18912.61476476487,7345.0
18912.614827262107,7273.0
18912.61488975934,7491.0
18912.61495225658,7193.0
18912.615014753817,6897.0
18912.615077251055,7334.0
18912.61513974829,7603.0
18912.615202245528,7176.0
18912.615264742766,6994.0
18912.615327240004,6903.0
18912.61538973724,5772.0
18912.615452234477,4470.0
18912.615514731715,3735.0
18912.615577228953,2048.0
18912.615639726188,-695.0
18912.615702223426,-3330.0
18912.615764720664,-6223.0
18912.615827217902,-9700.0
18912.615889715136,-12887.0
18912.615952212374,-15738.0
18912.616014709613,-19153.0
18912.616077206847,-21870.0
18912.616139704085,-22872.0
18912.616202201323,-23672.0
18912.61626469856,-23849.0
18912.616327195796,-23015.0
18912.616389693034,-22454.0
18912.616452190272,-22809.0
18912.61651468751,-23828.0
18912.616577184745,-24591.0
18912.616639681983,-25855.0
18912.61670217922,-26878.0
18912.61676467646,-26642.0
18912.616827173693,-26754.0
18912.61688967093,-27123.0
18912.61695216817,-26553.0
18912.617014665408,-24575.0
18912.617077162642,-20534.0
18912.61713965988,-12992.0
18912.61720215712,-4412.0
18912.617264654356,1570.0
18912.61732715159,7551.0
18912.61738964883,12076.0
18912.617452146067,13072.0
18912.617514643305,14772.0
18912.61757714054,15610.0
18912.617639637778,14143.0
18912.617702135016,12143.0
18912.617764632254,9877.0
18912.61782712949,8421.0
18912.617889626727,6665.0
18912.617952123965,6018.0
18912.6180146212,6294.0
18912.618077118437,4590.0
18912.618139615675,2444.0
18912.618202112913,507.0
18912.618264610148,-1194.0
18912.618327107386,-2283.0
18912.618389604624,-1690.0
18912.618452101862,140.0
18912.618514599097,1454.0
18912.618577096335,3974.0
18912.618639593573,7004.0
18912.61870209081,9820.0
18912.618764588045,12798.0
18912.618827085284,14701.0
18912.61888958252,15914.0
18912.61895207976,15073.0
18912.619014576994,13234.0
18912.619077074232,12073.0
18912.61913957147,10246.0
18912.61920206871,8660.0
18912.619264565943,7241.0
18912.61932706318,5681.0
18912.61938956042,4558.0
18912.619452057654,3723.0
18912.61951455489,3601.0
18912.61957705213,3540.0
18912.619639549368,3319.0
18912.619702046606,2782.0
18912.61976454384,2210.0
18912.61982704108,3218.0
18912.619889538317,5579.0
18912.61995203555,8416.0
18912.62001453279,10682.0
18912.620077030027,12129.0
18912.620139527266,13152.0
18912.6202020245,12758.0
18912.620264521738,12637.0
18912.620327018976,12984.0
18912.620389516214,11661.0
18912.62045201345,10035.0
18912.620514510687,8899.0
18912.620577007925,7985.0
18912.620639505163,7400.0
18912.620702002398,7716.0
18912.620764499636,9073.0
18912.620826996874,9205.0
18912.620889494112,8388.0
18912.620951991346,8009.0
18912.621014488584,7311.0
18912.621076985823,6421.0
18912.62113948306,6324.0
18912.621201980295,6607.0
18912.621264477533,5980.0
18912.62132697477,5237.0
18912.621389472006,5024.0
18912.621451969244,4447.0
18912.621514466482,3621.0
18912.62157696372,2525.0
18912.62163946096,568.0
18912.621701958193,-2535.0
18912.62176445543,-6146.0
18912.62182695267,-9393.0
18912.621889449903,-12512.0
18912.62195194714,-15666.0
18912.62201444438,-18584.0
18912.622076941618,-21026.0
18912.622139438852,-22470.0
18912.62220193609,-23328.0
18912.62226443333,-23619.0
18912.622326930566,-23224.0
18912.6223894278,-23854.0
18912.62245192504,-25233.0
18912.622514422277,-26226.0
18912.622576919515,-27270.0
18912.62263941675,-27919.0
18912.622701913988,-27725.0
18912.622764411226,-27128.0
18912.622826908464,-26897.0
18912.6228894057,-26513.0
18912.622951902937,-25552.0
18912.623014400175,-24129.0
18912.623076897413,-20014.0
18912.623139394647,-12009.0
18912.623201891885,-3804.0
18912.623264389124,2357.0
18912.623326886358,9026.0
18912.623389383596,13672.0
18912.623451880834,14856.0
18912.623514378072,17106.0
18912.623576875307,17723.0
18912.623639372545,15682.0
18912.623701869783,12799.0
18912.62376436702,9131.0
18912.623826864256,6916.0
18912.623889361494,4239.0
18912.62395185873,3059.0
18912.62401435597,3787.0
18912.624076853204,2027.0
18912.624139350442,315.0
18912.62420184768,-886.0
18912.62426434492,-2163.0
18912.624326842153,-2450.0
18912.62438933939,-1635.0
18912.62445183663,392.0
18912.624514333867,2002.0
18912.624576831102,4063.0
18912.62463932834,7001.0
18912.624701825578,10274.0
18912.624764322816,13533.0
18912.62482682005,15756.0
18912.62488931729,17285.0
18912.624951814527,16833.0
18912.625014311765,15134.0
18912.625076809,13410.0
18912.625139306238,11217.0
18912.625201803476,9530.0
18912.62526430071,7053.0
18912.62532679795,4644.0
18912.625389295186,3362.0
18912.625451792424,1902.0
18912.62551428966,1493.0
18912.625576786897,1940.0
18912.625639284135,2353.0
18912.625701781373,2080.0
18912.625764278608,2262.0
18912.625826775846,4610.0
18912.625889273084,6678.0
18912.625951770322,8914.0
18912.626014267556,11749.0
18912.626076764795,12862.0
18912.626139262033,13073.0
18912.62620175927,13010.0
18912.626264256505,12939.0
18912.626326753743,12548.0
18912.62638925098,11276.0
18912.62645174822,10095.0
18912.626514245454,8626.0
18912.626576742692,7050.0
18912.62663923993,6563.0
18912.626701737165,6857.0
18912.626764234403,7252.0
18912.62682673164,7612.0
18912.62688922888,7695.0
18912.626951726117,7267.0
18912.62701422335,6961.0
18912.62707672059,6931.0
18912.627139217828,6919.0
18912.627201715062,6879.0
18912.6272642123,6466.0
18912.62732670954,5874.0
18912.627389206777,5080.0
18912.62745170401,3894.0
18912.62751420125,2770.0
18912.627576698487,1220.0
18912.627639195725,-1332.0
18912.62770169296,-4512.0
18912.627764190198,-7780.0
18912.627826687436,-10868.0
18912.627889184674,-14186.0
18912.62795168191,-17243.0
18912.628014179147,-19446.0
18912.628076676385,-21183.0
18912.628139173623,-22671.0
18912.628201670857,-23254.0
18912.628264168095,-22847.0
18912.628326665334,-23263.0
18912.62838916257,-23825.0
18912.628451659806,-23599.0
18912.628514157044,-24407.0
18912.628576654282,-25508.0
18912.628639151517,-25782.0
18912.628701648755,-25791.0
18912.628764145993,-26076.0
18912.62882664323,-26189.0
18912.628889140466,-25539.0
18912.628951637704,-25079.0
18912.629014134942,-23854.0
18912.62907663218,-19252.0
18912.629139129414,-11577.0
18912.629201626653,-3931.0
18912.62926412389,2364.0
18912.62932662113,8145.0
18912.629389118363,11722.0
18912.6294516156,12905.0
18912.62951411284,14542.0
18912.629576610077,15485.0
18912.629639107312,13974.0
18912.62970160455,11617.0
18912.629764101788,9442.0
18912.629826599026,7387.0
18912.62988909626,5562.0
18912.6299515935,5349.0
18912.630014090737,5655.0
18912.630076587975,3959.0
18912.63013908521,1826.0
18912.630201582448,236.0
18912.630264079686,-1426.0
18912.630326576924,-1967.0
18912.63038907416,-1065.0
18912.630451571396,531.0
18912.630514068635,2149.0
18912.63057656587,4282.0
18912.630639063107,6981.0
18912.630701560345,9811.0
18912.630764057583,12545.0
18912.630826554818,14552.0
18912.630889052056,15472.0
18912.630951549294,14808.0
18912.631014046532,13251.0
18912.631076543767,11854.0
18912.631139041005,10179.0
18912.631201538243,8621.0
18912.63126403548,7003.0
18912.631326532715,5193.0
18912.631389029953,3907.0
18912.63145152719,2886.0
18912.63151402443,2501.0
18912.631576521664,2577.0
18912.631639018902,2765.0
18912.63170151614,3308.0
18912.63176401338,4493.0
18912.631826510613,6368.0
18912.63188900785,8179.0
18912.63195150509,10304.0
18912.632014002324,11768.0
18912.63207649956,11974.0
18912.6321389968,12317.0
18912.632201494038,11938.0
18912.632263991276,11243.0
18912.63232648851,10679.0
18912.63238898575,9554.0
18912.632451482987,8377.0
18912.63251398022,7045.0
18912.63257647746,6463.0
18912.632638974697,6670.0
18912.632701471935,6731.0
18912.63276396917,7148.0
18912.632826466408,7681.0
18912.632888963646,7605.0
18912.632951460884,7326.0
18912.63301395812,7686.0
18912.633076455357,8097.0
18912.633138952595,8131.0
18912.633201449833,7843.0
18912.633263947067,7130.0
18912.633326444306,6066.0
18912.633388941544,4385.0
18912.63345143878,3134.0
18912.633513936016,1911.0
18912.633576433254,-462.0
18912.633638930492,-2838.0
18912.63370142773,-5374.0
18912.633763924965,-8600.0
18912.633826422203,-11791.0
18912.63388891944,-14687.0
18912.633951416676,-17637.0
18912.634013913914,-20255.0
18912.634076411152,-21751.0
18912.63413890839,-22717.0
18912.634201405624,-23314.0
18912.634263902863,-23090.0
18912.6343264001,-22640.0
18912.63438889734,-22822.0
18912.634451394573,-23555.0
18912.63451389181,-24149.0
18912.63457638905,-25264.0
18912.634638886288,-26581.0
18912.634701383522,-26551.0
18912.63476388076,-26404.0
18912.634826378,-26450.0
18912.634888875236,-25857.0
18912.63495137247,-24959.0
18912.63501386971,-23149.0
18912.635076366947,-18607.0
18912.635138864185,-10884.0
18912.63520136142,-4066.0
18912.635263858658,1888.0
18912.635326355896,8207.0
18912.635388853134,11122.0
18912.63545135037,12605.0
18912.635513847606,14274.0
18912.635576344845,14513.0
18912.635638842083,13422.0
18912.635701339317,10800.0
18912.635763836555,8847.0
18912.635826333793,6940.0
18912.635888831028,4962.0
18912.635951328266,5194.0
18912.636013825504,5116.0
18912.636076322742,3808.0
18912.636138819977,2275.0
18912.636201317215,732.0
18912.636263814453,-463.0
18912.63632631169,-734.0
18912.636388808925,325.0
18912.636451306164,1588.0
18912.6365138034,3193.0
18912.63657630064,5017.0
18912.636638797874,7320.0
18912.636701295112,10344.0
18912.63676379235,12308.0
18912.63682628959,14199.0
18912.636888786823,15106.0
18912.63695128406,14004.0
18912.6370137813,12940.0
18912.637076278537,11553.0
18912.63713877577,10007.0
18912.63720127301,8334.0
18912.637263770248,6635.0
18912.637326267482,5102.0
18912.63738876472,3143.0
18912.63745126196,2062.0
18912.637513759197,1932.0
18912.637576256435,2413.0
18912.63763875367,2856.0
18912.637701250907,3237.0
18912.637763748146,4749.0
18912.63782624538,6639.0
18912.637888742618,8991.0
18912.637951239856,10984.0
18912.638013737094,12138.0
18912.63807623433,12855.0
18912.638138731567,11968.0
18912.638201228805,11381.0
18912.638263726043,11216.0
18912.638326223278,10030.0
18912.638388720516,9181.0
18912.638451217754,8427.0
18912.638513714992,7469.0
18912.638576212226,6807.0
18912.638638709464,6965.0
18912.638701206703,7572.0
18912.63876370394,7470.0
18912.638826201175,7351.0
18912.638888698413,7210.0
18912.63895119565,6686.0
18912.63901369289,6281.0
18912.639076190124,6795.0
18912.639138687362,7308.0
18912.6392011846,6845.0
18912.639263681835,6823.0
18912.639326179073,6528.0
18912.63938867631,5231.0
18912.63945117355,4136.0
18912.639513670783,2801.0
18912.63957616802,553.0
18912.63963866526,-2550.0
18912.639701162498,-5842.0
18912.639763659732,-9599.0
18912.63982615697,-13383.0
18912.63988865421,-16336.0
18912.639951151446,-19220.0
18912.64001364868,-21738.0
18912.64007614592,-23300.0
18912.640138643157,-24353.0
18912.640201140395,-24535.0
18912.64026363763,-23881.0
18912.640326134868,-23713.0
18912.640388632106,-23772.0
18912.640451129344,-23922.0
18912.64051362658,-25244.0
18912.640576123817,-26678.0
18912.640638621055,-27126.0
18912.640701118293,-27155.0
18912.640763615527,-26902.0
18912.640826112765,-26520.0
18912.640888610003,-25834.0
18912.64095110724,-24221.0
18912.641013604476,-20798.0
18912.641076101714,-13756.0
18912.641138598952,-5890.0
18912.641201096187,-221.0
18912.641263593425,6204.0
18912.641326090663,10600.0
18912.6413885879,11060.0
18912.641451085135,13008.0
18912.641513582374,14069.0
18912.64157607961,12765.0
18912.64163857685,11128.0
18912.641701074084,8444.0
18912.641763571322,6675.0
18912.64182606856,5006.0
18912.6418885658,4419.0
18912.641951063033,5138.0
18912.64201356027,3772.0
18912.64207605751,2268.0
18912.642138554747,767.0
18912.642201051982,-709.0
18912.64226354922,-954.0
18912.642326046458,-209.0
18912.642388543696,1635.0
18912.64245104093,2884.0
18912.64251353817,4581.0
18912.642576035407,7023.0
18912.64263853264,9613.0
18912.64270102988,12490.0
18912.642763527117,14228.0
18912.642826024356,15543.0
18912.642888521594,14986.0
18912.642951018828,12979.0
18912.643013516066,11777.0
18912.643076013304,10420.0
18912.64313851054,9180.0
18912.643201007777,7412.0
18912.643263505015,5538.0
18912.643326002253,4236.0
18912.643388499488,2706.0
18912.643450996726,2261.0
18912.643513493964,2440.0
18912.643575991202,2722.0
18912.643638488436,3026.0
18912.643700985675,3414.0
18912.643763482913,5199.0
18912.64382598015,7576.0
18912.643888477385,9631.0
18912.643950974623,11266.0
18912.64401347186,12287.0
18912.6440759691,11988.0
18912.644138466334,10718.0
18912.644200963572,10731.0
18912.64426346081,10332.0
18912.64432595805,8955.0
18912.644388455283,8487.0
18912.64445095252,7693.0
18912.64451344976,6666.0
18912.644575946993,6223.0
18912.64463844423,6691.0
18912.64470094147,7097.0
18912.644763438708,6751.0
18912.644825935946,7014.0
18912.64488843318,7145.0
18912.64495093042,6713.0
18912.645013427657,6780.0
18912.64507592489,7497.0
18912.64513842213,7443.0
18912.645200919367,6718.0
18912.645263416605,6454.0
18912.64532591384,5255.0
18912.645388411078,3476.0
18912.645450908316,2179.0
18912.645513405554,383.0
18912.64557590279,-2219.0
18912.645638400027,-5175.0
18912.645700897265,-7824.0
18912.645763394503,-10624.0
18912.645825891737,-13709.0
18912.645888388975,-16240.0
18912.645950886214,-18397.0
18912.64601338345,-20530.0
18912.646075880686,-21845.0
18912.646138377924,-22143.0
18912.646200875162,-22380.0
18912.6462633724,-22596.0
18912.646325869635,-22966.0
18912.646388366873,-23774.0
18912.64645086411,-24726.0
18912.646513361346,-25509.0
18912.646575858584,-26071.0
18912.64663835582,-26374.0
18912.64670085306,-26286.0
18912.646763350294,-26519.0
18912.646825847532,-26481.0
18912.64688834477,-25946.0
18912.64695084201,-24628.0
18912.647013339243,-20729.0
18912.64707583648,-13858.0
18912.64713833372,-5752.0
18912.647200830957,297.0
18912.647263328192,5639.0
18912.64732582543,10609.0
18912.647388322668,12031.0
18912.647450819906,13148.0
18912.64751331714,14615.0
18912.64757581438,13368.0
18912.647638311617,10491.0
18912.647700808855,8226.0
18912.64776330609,7112.0
18912.647825803328,5312.0
18912.647888300566,4323.0
18912.647950797804,5237.0
18912.64801329504,4362.0
18912.648075792276,1977.0
18912.648138289514,543.0
18912.648200786753,-200.0
18912.648263283987,-1027.0
18912.648325781225,-754.0
18912.648388278463,1099.0
18912.648450775698,2587.0
18912.648513272936,4271.0
18912.648575770174,7194.0
18912.648638267412,10047.0
18912.648700764646,12211.0
18912.648763261885,13864.0
18912.648825759123,14922.0
18912.64888825636,14231.0
18912.648950753595,12484.0
18912.649013250833,11245.0
18912.64907574807,9973.0
18912.64913824531,8634.0
18912.649200742544,7060.0
18912.649263239782,5595.0
18912.64932573702,4743.0
18912.64938823426,3752.0
18912.649450731493,3042.0
18912.64951322873,2760.0
18912.64957572597,2745.0
18912.649638223207,2747.0
18912.64970072044,3084.0
18912.64976321768,5198.0
18912.649825714918,7824.0
18912.649888212152,9356.0
18912.64995070939,11031.0
18912.65001320663,12542.0
18912.650075703867,12020.0
18912.650138201105,11060.0
18912.65020069834,11360.0
18912.650263195577,10622.0
18912.650325692815,8639.0
18912.65038819005,7635.0
18912.650450687288,6963.0
18912.650513184526,5666.0
18912.650575681764,5228.0
18912.650638179,6319.0
18912.650700676237,6866.0
18912.650763173475,6790.0
18912.650825670713,7714.0
18912.650888167947,8247.0
18912.650950665186,7673.0
18912.651013162424,7697.0
18912.65107565966,8201.0
18912.651138156896,7473.0
18912.651200654134,6346.0
18912.651263151372,6015.0
18912.65132564861,4940.0
18912.651388145845,3083.0
18912.651450643083,1950.0
18912.65151314032,782.0
18912.65157563756,-1849.0
18912.651638134794,-4629.0
18912.651700632032,-6727.0
18912.65176312927,-9793.0
18912.651825626504,-13021.0
18912.651888123743,-15564.0
18912.65195062098,-18215.0
18912.65201311822,-20838.0
18912.652075615453,-22482.0
18912.65213811269,-22073.0
18912.65220060993,-21790.0
18912.652263107168,-22247.0
18912.652325604402,-21527.0
18912.65238810164,-22147.0
18912.65245059888,-24251.0
18912.652513096116,-24986.0
18912.65257559335,-25843.0
18912.65263809059,-26714.0
18912.652700587827,-26361.0
18912.652763085065,-26083.0
18912.6528255823,-25577.0
18912.652888079538,-24962.0
18912.652950576776,-24084.0
18912.653013074014,-21351.0
18912.65307557125,-16904.0
18912.653138068486,-10849.0
18912.653200565725,-4519.0
18912.653263062963,887.0
18912.653325560197,6161.0
18912.653388057435,9776.0
18912.653450554673,12188.0
18912.65351305191,14344.0
18912.653575549146,14227.0
18912.653638046384,13142.0
18912.653700543622,11307.0
18912.653763040857,8864.0
18912.653825538095,7118.0
18912.653888035333,5377.0
18912.65395053257,4651.0
18912.654013029805,3759.0
18912.654075527043,2251.0
18912.65413802428,1028.0
18912.65420052152,-460.0
18912.654263018754,-895.0
18912.654325515992,-824.0
18912.65438801323,65.0
18912.65445051047,1708.0
18912.654513007703,3299.0
18912.65457550494,5743.0
18912.65463800218,8357.0
18912.654700499417,10780.0
18912.65476299665,12554.0
18912.65482549389,13928.0
18912.654887991128,14523.0
18912.654950488366,13495.0
18912.6550129856,12360.0
18912.65507548284,10868.0
18912.655137980077,9303.0
18912.65520047731,7863.0
18912.65526297455,6087.0
18912.655325471787,4950.0
18912.655387969025,4005.0
18912.655450466264,3316.0
18912.655512963498,2992.0
18912.655575460736,2720.0
18912.655637957974,3149.0
18912.65570045521,4366.0
18912.655762952447,6000.0
18912.655825449685,7546.0
18912.655887946923,9090.0
18912.655950444157,9958.0
18912.656012941396,10076.0
18912.656075438634,10328.0
18912.65613793587,10260.0
18912.656200433106,9901.0
18912.656262930344,9281.0
18912.656325427582,8742.0
18912.65638792482,8125.0
18912.656450422055,7119.0
18912.656512919293,6961.0
18912.65657541653,6927.0
18912.65663791377,6560.0
18912.656700411004,6476.0
18912.656762908242,6813.0
18912.65682540548,6987.0
18912.656887902718,6588.0
18912.656950399953,6801.0
18912.65701289719,7021.0
18912.65707539443,6641.0
18912.657137891663,6642.0
18912.6572003889,6560.0
18912.65726288614,5820.0
18912.657325383378,4750.0
18912.657387880612,3774.0
18912.65745037785,2588.0
18912.65751287509,721.0
18912.657575372326,-1574.0
18912.65763786956,-3927.0
18912.6577003668,-6734.0
18912.657762864037,-9876.0
18912.657825361275,-12707.0
18912.65788785851,-15660.0
18912.657950355748,-18498.0
18912.658012852986,-20577.0
18912.658075350224,-21986.0
18912.65813784746,-22719.0
18912.658200344697,-23031.0
18912.658262841935,-23089.0
18912.658325339173,-23582.0
18912.658387836407,-24194.0
18912.658450333645,-24506.0
18912.658512830883,-25430.0
18912.65857532812,-26361.0
18912.658637825356,-26839.0
18912.658700322594,-27080.0
18912.658762819832,-26831.0
18912.65882531707,-25935.0
18912.658887814305,-24611.0
18912.658950311543,-23012.0
18912.65901280878,-19846.0
18912.659075306015,-14111.0
18912.659137803254,-6796.0
18912.65920030049,-371.0
18912.65926279773,4545.0
18912.659325294964,8701.0
18912.659387792202,10620.0
18912.65945028944,11405.0
18912.65951278668,12335.0
18912.659575283913,12108.0
18912.65963778115,11118.0
18912.65970027839,8963.0
18912.659762775627,7066.0
18912.65982527286,6187.0
18912.6598877701,4662.0
18912.659950267338,4338.0
18912.660012764576,4099.0
18912.66007526181,2495.0
18912.66013775905,893.0
18912.660200256287,-387.0
18912.660262753525,-572.0
18912.66032525076,59.0
18912.660387747997,1613.0
18912.660450245236,3737.0
18912.66051274247,5458.0
18912.660575239708,7372.0
18912.660637736946,9331.0
18912.660700234184,11674.0
18912.660762731422,13527.0
18912.660825228657,14190.0
18912.660887725895,13934.0
18912.660950223133,12421.0
18912.661012720368,10872.0
18912.661075217606,9391.0
18912.661137714844,8045.0
18912.661200212082,7067.0
18912.661262709316,5501.0
18912.661325206554,4168.0
18912.661387703793,3039.0
18912.66145020103,2231.0
18912.661512698265,2744.0
18912.661575195503,3387.0
18912.66163769274,3400.0
18912.66170018998,3462.0
18912.661762687214,4570.0
18912.661825184452,6630.0
18912.66188768169,8964.0
18912.66195017893,10962.0
18912.662012676163,12062.0
18912.6620751734,12084.0
18912.66213767064,10961.0
18912.662200167877,10168.0
18912.66226266511,9722.0
18912.66232516235,8613.0
18912.662387659588,7894.0
18912.662450156822,7207.0
18912.66251265406,6079.0
18912.6625751513,5571.0
18912.662637648536,5940.0
18912.66270014577,6682.0
18912.66276264301,7203.0
18912.662825140247,7528.0
18912.662887637485,7417.0
18912.66295013472,6652.0
18912.663012631958,6453.0
18912.663075129196,7116.0
18912.663137626434,7064.0
18912.66320012367,6324.0
18912.663262620907,5939.0
18912.663325118145,5063.0
18912.663387615383,3456.0
18912.663450112617,2232.0
18912.663512609855,763.0
18912.663575107093,-1762.0
18912.66363760433,-4762.0
18912.663700101566,-7769.0
18912.663762598804,-10732.0
18912.663825096042,-13731.0
18912.66388759328,-16318.0
18912.663950090515,-18268.0
18912.664012587753,-20244.0
18912.66407508499,-21917.0
18912.66413758223,-22610.0
18912.664200079464,-22821.0
18912.6642625767,-23009.0
18912.66432507394,-22912.0
18912.664387571174,-23126.0
18912.664450068412,-23809.0
18912.66451256565,-24219.0
18912.66457506289,-25286.0
18912.664637560123,-25946.0
18912.66470005736,-25459.0
18912.6647625546,-25722.0
18912.664825051837,-25686.0
18912.664887549072,-25086.0
18912.66495004631,-23923.0
18912.665012543548,-20682.0
18912.665075040786,-14958.0
18912.66513753802,-7751.0
18912.66520003526,-1770.0
18912.665262532497,3352.0
18912.665325029735,7700.0
18912.66538752697,9684.0
18912.665450024208,11387.0
18912.665512521446,12486.0
18912.665575018684,11971.0
18912.66563751592,10615.0
18912.665700013156,8670.0
18912.665762510394,6966.0
18912.66582500763,5323.0
18912.665887504867,4466.0
18912.665950002105,4579.0
18912.666012499343,3899.0
18912.66607499658,2642.0
18912.666137493816,1321.0
18912.666199991054,408.0
18912.666262488292,122.0
18912.666324985526,823.0
18912.666387482765,2342.0
18912.666449980003,3520.0
18912.66651247724,4921.0
18912.666574974475,6844.0
18912.666637471713,8848.0
18912.66669996895,10777.0
18912.66676246619,12257.0
18912.666824963424,13400.0
18912.666887460662,13144.0
18912.6669499579,11682.0
18912.66701245514,10463.0
18912.667074952373,9320.0
18912.66713744961,8219.0
18912.66719994685,6908.0
18912.667262444087,5410.0
18912.66732494132,4110.0
18912.66738743856,2987.0
18912.667449935798,2597.0
18912.667512433036,2714.0
18912.66757493027,3195.0
18912.66763742751,4171.0
18912.667699924747,5144.0
18912.66776242198,6548.0
18912.66782491922,8315.0
18912.667887416457,9980.0
18912.667949913695,11441.0
18912.668012410933,11856.0
18912.668074908168,11582.0
18912.668137405406,10487.0
18912.668199902644,8860.0
18912.66826239988,8177.0
18912.668324897117,7315.0
18912.668387394355,6222.0
18912.668449891593,5894.0
18912.668512388827,5810.0
18912.668574886065,5489.0
18912.668637383304,5636.0
18912.66869988054,6846.0
18912.668762377776,7496.0
18912.668824875014,7753.0
18912.668887372252,8115.0
18912.66894986949,8075.0
18912.669012366725,7898.0
18912.669074863963,7809.0
18912.6691373612,7939.0
18912.66919985844,7279.0
18912.669262355674,5999.0
18912.66932485291,4912.0
18912.66938735015,3443.0
18912.669449847388,1613.0
18912.669512344622,-408.0
18912.66957484186,-2689.0
18912.6696373391,-5310.0
18912.669699836333,-8341.0
18912.66976233357,-11327.0
18912.66982483081,-13769.0
18912.669887328047,-16424.0
18912.669949825282,-19058.0
18912.67001232252,-20682.0
18912.670074819758,-21564.0
18912.670137316996,-22058.0
18912.67019981423,-22163.0
18912.67026231147,-21360.0
18912.670324808707,-20999.0
18912.670387305945,-22228.0
18912.67044980318,-22712.0
18912.670512300418,-23137.0
18912.670574797656,-25001.0
18912.670637294894,-25660.0
18912.67069979213,-25190.0
18912.670762289366,-25697.0
18912.670824786604,-25768.0
18912.670887283843,-24568.0
18912.670949781077,-23244.0
18912.671012278315,-20686.0
18912.671074775553,-14670.0
18912.67113727279,-7577.0
18912.671199770026,-2426.0
18912.671262267264,2573.0
18912.671324764502,7042.0
18912.67138726174,8820.0
18912.671449758975,10019.0
18912.671512256213,11464.0
18912.67157475345,11093.0
18912.671637250685,9240.0
18912.671699747923,7840.0
18912.67176224516,6763.0
18912.6718247424,5512.0
18912.671887239634,5549.0
18912.671949736872,6134.0
18912.67201223411,5245.0
18912.67207473135,3953.0
18912.672137228583,2619.0
18912.67219972582,1074.0
18912.67226222306,349.0
18912.672324720297,831.0
18912.67238721753,1778.0
18912.67244971477,2636.0
18912.672512212008,4352.0
18912.672574709246,6629.0
18912.67263720648,8527.0
18912.67269970372,10642.0
18912.672762200957,12556.0
18912.672824698195,13381.0
18912.67288719543,12926.0
18912.672949692667,11985.0
18912.673012189905,10988.0
18912.67307468714,9608.0
18912.673137184378,8408.0
18912.673199681616,7283.0
18912.673262178854,5739.0
18912.673324676092,4343.0
18912.673387173327,3538.0
18912.673449670565,2953.0
18912.673512167803,2437.0
18912.673574665037,2440.0
18912.673637162276,2826.0
18912.673699659514,3563.0
18912.67376215675,5222.0
18912.673824653986,7973.0
18912.673887151224,10723.0
18912.673949648462,11728.0
18912.6740121457,12025.0
18912.674074642935,12376.0
18912.674137140173,10837.0
18912.67419963741,9621.0
18912.67426213465,9399.0
18912.674324631884,7907.0
18912.674387129122,6471.0
18912.67444962636,5736.0
18912.674512123598,5509.0
18912.674574620833,5061.0
18912.67463711807,5525.0
18912.67469961531,7014.0
18912.674762112547,6990.0
18912.67482460978,6702.0
18912.67488710702,6948.0
18912.674949604258,7006.0
18912.675012101492,6806.0
18912.67507459873,7317.0
18912.67513709597,7729.0
18912.675199593206,6535.0
18912.67526209044,5772.0
18912.67532458768,5004.0
18912.675387084917,3616.0
18912.675449582155,2334.0
18912.67551207939,534.0
18912.675574576628,-1888.0
18912.675637073866,-5368.0
18912.675699571104,-8698.0
18912.67576206834,-11148.0
18912.675824565576,-13567.0
18912.675887062815,-16089.0
18912.675949560053,-18339.0
18912.676012057287,-20035.0
18912.676074554525,-21422.0
18912.676137051763,-21658.0
18912.676199549,-20924.0
18912.676262046236,-20851.0
18912.676324543474,-21515.0
18912.676387040712,-22448.0
18912.67644953795,-23618.0
18912.676512035185,-25296.0
18912.676574532423,-26438.0
18912.67663702966,-26640.0
18912.6766995269,-27302.0
18912.676762024133,-27582.0
18912.67682452137,-26947.0
18912.67688701861,-26528.0
18912.676949515844,-24974.0
18912.677012013082,-20459.0
18912.67707451032,-13574.0
18912.67713700756,-6670.0
18912.677199504793,-956.0
18912.67726200203,4922.0
18912.67732449927,8611.0
18912.677386996507,9745.0
18912.67744949374,12290.0
18912.67751199098,13454.0
18912.677574488218,12128.0
18912.677636985456,10872.0
18912.67769948269,9105.0
18912.67776197993,7280.0
18912.677824477167,5737.0
18912.677886974405,5419.0
18912.67794947164,5410.0
18912.678011968877,3658.0
18912.678074466116,1704.0
18912.678136963354,344.0
18912.678199460588,-1053.0
18912.678261957826,-1727.0
18912.678324455064,-755.0
18912.6783869523,777.0
18912.678449449537,1912.0
18912.678511946775,3781.0
18912.678574444013,6387.0
18912.67863694125,9057.0
18912.678699438486,11292.0
18912.678761935724,13029.0
18912.678824432962,14335.0
18912.678886930196,14061.0
18912.678949427434,12756.0
18912.679011924673,11928.0
18912.67907442191,10912.0
18912.679136919145,9518.0
18912.679199416383,8067.0
18912.67926191362,6353.0
18912.67932441086,4707.0
18912.679386908094,3338.0
18912.679449405332,2617.0
18912.67951190257,2497.0
18912.67957439981,2613.0
18912.679636897043,3655.0
18912.67969939428,5355.0
18912.67976189152,6823.0
18912.679824388757,8360.0
18912.67988688599,9881.0
18912.67994938323,10648.0
18912.680011880468,10766.0
18912.680074377706,10636.0
18912.68013687494,9721.0
18912.68019937218,8298.0
18912.680261869416,7334.0
18912.68032436665,6642.0
18912.68038686389,5844.0
18912.680449361127,5596.0
18912.680511858365,6197.0
18912.6805743556,6182.0
18912.680636852838,6047.0
18912.680699350076,6976.0
18912.680761847314,7487.0
18912.68082434455,7473.0
18912.680886841787,7885.0
18912.680949339025,8176.0
18912.681011836263,7708.0
18912.681074333497,7014.0
18912.681136830735,6851.0
18912.681199327973,6362.0
18912.68126182521,5173.0
18912.681324322446,4143.0
18912.681386819684,3002.0
18912.681449316922,1080.0
18912.68151181416,-1136.0
18912.681574311395,-3065.0
18912.681636808633,-5227.0
18912.68169930587,-8069.0
18912.68176180311,-10907.0
18912.681824300344,-13373.0
18912.68188679758,-16222.0
18912.68194929482,-19001.0
18912.682011792058,-20407.0
18912.682074289292,-20987.0
18912.68213678653,-21694.0
18912.68219928377,-22246.0
18912.682261781003,-22204.0
18912.68232427824,-22493.0
18912.68238677548,-23513.0
18912.682449272717,-23750.0
18912.68251176995,-24200.0
18912.68257426719,-25409.0
18912.682636764428,-25824.0
18912.682699261666,-26095.0
18912.6827617589,-26058.0
18912.68282425614,-25791.0
18912.682886753377,-25252.0
18912.682949250615,-22930.0
18912.68301174785,-19087.0
18912.683074245087,-13124.0
18912.683136742326,-6225.0
18912.683199239564,-544.0
18912.683261736798,4697.0
18912.683324234036,8562.0
18912.683386731274,10723.0
18912.683449228512,12184.0
18912.683511725747,12490.0
18912.683574222985,11781.0
18912.683636720223,9781.0
18912.683699217458,7524.0
18912.683761714696,5935.0
18912.683824211934,4440.0
18912.683886709172,3970.0
18912.68394920641,3954.0
18912.684011703645,3203.0
18912.684074200883,2019.0
18912.68413669812,944.0
18912.684199195355,478.0
18912.684261692593,148.0
18912.68432418983,709.0
18912.68438668707,2043.0
18912.684449184304,3274.0
18912.684511681542,4950.0
18912.68457417878,7003.0
18912.68463667602,9551.0
18912.684699173253,11576.0
18912.68476167049,12756.0
18912.68482416773,13456.0
18912.684886664967,12691.0
18912.6849491622,11409.0
18912.68501165944,10088.0
18912.685074156678,8794.0
18912.685136653916,7545.0
18912.68519915115,5957.0
18912.68526164839,4977.0
18912.685324145627,4132.0
18912.685386642865,3337.0
18912.6854491401,3293.0
18912.685511637337,3543.0
18912.685574134575,4014.0
18912.68563663181,4522.0
18912.685699129048,5915.0
18912.685761626286,8308.0
18912.685824123524,9798.0
18912.68588662076,10307.0
18912.685949117997,11632.0
18912.686011615235,11715.0
18912.686074112473,9819.0
18912.686136609707,9410.0
18912.686199106945,8802.0
18912.686261604184,6907.0
18912.68632410142,5882.0
18912.686386598656,5680.0
18912.686449095894,5048.0
18912.686511593132,4194.0
18912.68657409037,5244.0
18912.686636587605,6304.0
18912.686699084843,6048.0
18912.68676158208,6617.0
18912.68682407932,7497.0
18912.686886576554,7327.0
18912.68694907379,7024.0
18912.68701157103,7881.0
18912.687074068268,8065.0
18912.687136565502,7098.0
18912.68719906274,6595.0
18912.68726155998,5772.0
18912.687324057217,4272.0
18912.68738655445,2655.0
18912.68744905169,1189.0
18912.687511548927,-961.0
18912.687574046162,-4046.0
18912.6876365434,-6669.0
18912.687699040638,-9262.0
18912.687761537876,-12336.0
18912.68782403511,-15001.0
18912.68788653235,-17287.0
18912.687949029587,-19461.0
18912.688011526825,-20991.0
18912.68807402406,-21498.0
18912.688136521298,-21917.0
18912.688199018536,-22350.0
18912.688261515774,-22285.0
18912.68832401301,-22877.0
18912.688386510246,-24012.0
18912.688449007484,-24570.0
18912.688511504723,-25276.0
18912.688574001957,-25885.0
18912.688636499195,-25785.0
18912.688698996433,-25526.0
18912.68876149367,-25210.0
18912.688823990906,-24701.0
18912.688886488144,-23692.0
18912.688948985382,-21593.0
18912.689011482616,-16411.0
18912.689073979855,-9150.0
18912.689136477093,-3746.0
18912.68919897433,1396.0
18912.68926147157,6602.0
18912.689323968803,9349.0
18912.68938646604,11176.0
18912.68944896328,12929.0
18912.689511460514,13500.0
18912.689573957752,11675.0
18912.68963645499,8903.0
18912.68969895223,7369.0
18912.689761449463,5279.0
18912.6898239467,3420.0
18912.68988644394,3405.0
18912.689948941177,2851.0
18912.69001143841,1197.0
18912.69007393565,178.0
18912.690136432888,-163.0
18912.690198930126,-615.0
18912.69026142736,-182.0
18912.6903239246,1413.0
18912.690386421837,2912.0
18912.690448919075,4164.0
18912.69051141631,6045.0
18912.690573913547,8723.0
18912.690636410785,10856.0
18912.690698908023,12410.0
18912.690761405258,13822.0
18912.690823902496,13984.0
18912.690886399734,12913.0
18912.69094889697,11565.0
18912.691011394207,10301.0
18912.691073891445,8972.0
18912.691136388683,7310.0
18912.69119888592,5716.0
18912.691261383156,4492.0
18912.691323880394,3372.0
18912.69138637763,2498.0
18912.691448874866,2357.0
18912.691511372104,2765.0
18912.691573869342,3138.0
18912.69163636658,4028.0
18912.691698863815,6077.0
18912.691761361053,8105.0
18912.69182385829,9510.0
18912.69188635553,10988.0
18912.691948852764,11925.0
18912.692011350002,11595.0
18912.69207384724,10691.0
18912.692136344478,9982.0
18912.692198841713,8843.0
18912.69226133895,7289.0
18912.69232383619,6188.0
18912.692386333427,5131.0
18912.69244883066,4185.0
18912.6925113279,3918.0
18912.692573825138,4433.0
18912.692636322376,5261.0
18912.69269881961,5641.0
18912.69276131685,6155.0
18912.692823814086,6937.0
18912.69288631132,7090.0
18912.69294880856,7172.0
18912.693011305797,7768.0
18912.693073803035,7781.0
18912.69313630027,7031.0
18912.693198797508,6528.0
18912.693261294746,5684.0
18912.693323791984,3986.0
18912.69338628922,2370.0
18912.693448786456,593.0
18912.693511283695,-1970.0
18912.693573780933,-4880.0
18912.693636278167,-7479.0
18912.693698775405,-9687.0
18912.693761272643,-12504.0
18912.69382376988,-15527.0
18912.693886267116,-17568.0
18912.693948764354,-19421.0
18912.694011261592,-20879.0
18912.69407375883,-21084.0
18912.694136256065,-20935.0
18912.694198753303,-21271.0
18912.69426125054,-21759.0
18912.69432374778,-22022.0
18912.694386245013,-22974.0
18912.69444874225,-24370.0
18912.69451123949,-25361.0
18912.694573736728,-26050.0
18912.694636233962,-26175.0
18912.6946987312,-26320.0
18912.69476122844,-25834.0
18912.694823725673,-24458.0
18912.69488622291,-22910.0
18912.69494872015,-19257.0
18912.695011217387,-13248.0
18912.69507371462,-7202.0
18912.69513621186,-2103.0
18912.695198709098,2469.0
18912.695261206336,5941.0
18912.69532370357,7715.0
18912.69538620081,9346.0
18912.695448698047,10868.0
18912.695511195285,10953.0
18912.69557369252,9816.0
18912.695636189757,8626.0
18912.695698686995,7315.0
18912.695761184234,5692.0
18912.695823681468,5209.0
18912.695886178706,4838.0
18912.695948675944,3553.0
18912.696011173182,2176.0
18912.696073670417,642.0
18912.696136167655,-388.0
18912.696198664893,-402.0
18912.696261162127,338.0
18912.696323659366,1389.0
18912.696386156604,2655.0
18912.69644865384,4560.0
18912.69651115108,6615.0
18912.696573648314,8564.0
18912.696636145552,10721.0
18912.69669864279,12383.0
18912.696761140025,12888.0
18912.696823637263,12678.0
18912.6968861345,12143.0
18912.69694863174,10988.0
18912.697011128974,9714.0
18912.697073626212,8891.0
18912.69713612345,7651.0
18912.697198620688,5974.0
18912.697261117923,4584.0
18912.69732361516,3508.0
18912.6973861124,3072.0
18912.697448609637,3008.0
18912.69751110687,3425.0
18912.69757360411,4243.0
18912.697636101348,5072.0
18912.697698598586,6911.0
18912.69776109582,8746.0
18912.69782359306,9803.0
18912.697886090296,10898.0
18912.697948587534,11072.0
18912.69801108477,10356.0
18912.698073582007,9729.0
18912.698136079245,8717.0
18912.69819857648,7678.0
18912.698261073718,6972.0
18912.698323570956,6357.0
18912.698386068194,5740.0
18912.69844856543,5188.0
18912.698511062667,5411.0
18912.698573559905,5923.0
18912.698636057143,6346.0
18912.698698554377,6943.0
18912.698761051615,7438.0
18912.698823548853,7370.0
18912.69888604609,7138.0
18912.698948543326,7361.0
18912.699011040564,7100.0
18912.699073537802,6531.0
18912.69913603504,6115.0
18912.699198532275,5269.0
18912.699261029513,4167.0
18912.69932352675,2738.0
18912.69938602399,1390.0
18912.699448521224,-350.0
18912.69951101846,-2746.0
18912.6995735157,-5134.0
18912.699636012938,-7961.0
18912.699698510172,-10771.0
18912.69976100741,-13455.0
18912.69982350465,-16128.0
18912.699886001887,-18249.0
18912.69994849912,-20196.0
18912.70001099636,-21717.0
18912.700073493597,-22285.0
18912.70013599083,-22391.0
18912.70019848807,-22945.0
18912.700260985308,-23525.0
18912.700323482546,-23880.0
18912.70038597978,-24665.0
18912.70044847702,-25544.0
18912.700510974257,-25964.0
18912.700573471495,-25859.0
18912.70063596873,-25759.0
18912.700698465967,-25369.0
18912.700760963206,-24503.0
18912.700823460444,-23450.0
18912.700885957678,-21084.0
18912.700948454916,-16499.0
18912.701010952154,-9877.0
18912.701073449392,-3614.0
18912.701135946627,1146.0
18912.701198443865,5775.0
18912.701260941103,8511.0
18912.70132343834,9442.0
18912.701385935576,10615.0
18912.701448432814,10762.0
18912.701510930052,9458.0
18912.701573427286,7597.0
18912.701635924524,6331.0
18912.701698421763,5234.0
18912.701760919,4113.0
18912.70182341624,4262.0
18912.701885913473,4090.0
18912.70194841071,2712.0
18912.70201090795,1510.0
18912.702073405184,486.0
18912.702135902422,-179.0
18912.70219839966,-120.0
18912.7022608969,897.0
18912.702323394133,2681.0
18912.70238589137,4504.0
18912.70244838861,6623.0
18912.702510885847,9092.0
18912.70257338308,11294.0
18912.70263588032,12790.0
18912.702698377558,13604.0
18912.702760874796,13598.0
18912.70282337203,12649.0
18912.70288586927,11187.0
18912.702948366506,9673.0
18912.703010863745,8362.0
18912.70307336098,7000.0
18912.703135858217,5511.0
18912.703198355455,4587.0
18912.703260852693,3813.0
18912.703323349928,2803.0
18912.703385847166,2482.0
18912.703448344404,2656.0
18912.70351084164,2620.0
18912.703573338877,3485.0
18912.703635836115,5781.0
18912.703698333353,8244.0
18912.703760830587,9967.0
18912.703823327825,11404.0
18912.703885825063,12365.0
18912.7039483223,12130.0
18912.704010819536,11494.0
18912.704073316774,10885.0
18912.704135814012,9583.0
18912.70419831125,7742.0
18912.704260808485,6296.0
18912.704323305723,4983.0
18912.70438580296,3675.0
18912.7044483002,3468.0
18912.704510797434,4001.0
18912.70457329467,4435.0
18912.70463579191,4923.0
18912.704698289148,5682.0
18912.704760786382,6538.0
18912.70482328362,7114.0
18912.70488578086,7433.0
18912.704948278097,7750.0
18912.70501077533,8120.0
18912.70507327257,7914.0
18912.705135769807,7057.0
18912.705198267045,6435.0
18912.70526076428,5345.0
18912.705323261518,3645.0
18912.705385758756,2005.0
18912.70544825599,-219.0
18912.70551075323,-3035.0
18912.705573250467,-5894.0
18912.705635747705,-8671.0
18912.70569824494,-11703.0
18912.705760742178,-14853.0
18912.705823239416,-17345.0
18912.705885736654,-19374.0
18912.70594823389,-20871.0
18912.706010731126,-21458.0
18912.706073228364,-21385.0
18912.706135725603,-21496.0
18912.706198222837,-21813.0
18912.706260720075,-22063.0
18912.706323217313,-23103.0
18912.70638571455,-23670.0
18912.706448211786,-23913.0
18912.706510709024,-24815.0
18912.706573206262,-24896.0
18912.7066357035,-24777.0
18912.706698200735,-24451.0
18912.706760697973,-23773.0
18912.70682319521,-22813.0
18912.706885692445,-21245.0
18912.706948189683,-18395.0
18912.70701068692,-12933.0
18912.70707318416,-7665.0
18912.707135681398,-2864.0
18912.707198178632,2835.0
18912.70726067587,6345.0
18912.70732317311,8545.0
18912.707385670343,10974.0
18912.70744816758,11982.0
18912.70751066482,11436.0
18912.707573162057,9904.0
18912.70763565929,8834.0
18912.70769815653,7547.0
18912.707760653768,5607.0
18912.707823151006,5057.0
18912.70788564824,4694.0
18912.70794814548,3420.0
18912.708010642717,1987.0
18912.708073139955,1166.0
18912.70813563719,401.0
18912.708198134427,-424.0
18912.708260631665,473.0
18912.708323128903,1821.0
18912.708385626138,2899.0
18912.708448123376,4390.0
18912.708510620614,6328.0
18912.708573117852,8727.0
18912.708635615087,10185.0
18912.708698112325,11590.0
18912.708760609563,12855.0
18912.708823106797,12563.0
18912.708885604035,11575.0
18912.708948101274,10534.0
18912.70901059851,9556.0
18912.70907309575,8107.0
18912.709135592984,6882.0
18912.709198090222,6052.0
18912.70926058746,4702.0
18912.709323084695,3652.0
18912.709385581933,3566.0
18912.70944807917,4150.0
18912.70951057641,4222.0
18912.709573073644,4795.0
18912.70963557088,7297.0
18912.70969806812,8661.0
18912.709760565358,8817.0
18912.709823062592,10234.0
18912.70988555983,10667.0
18912.70994805707,9582.0
18912.710010554307,9235.0
18912.71007305154,8983.0
18912.71013554878,7659.0
18912.710198046017,6386.0
18912.710260543256,6194.0
18912.71032304049,5988.0
18912.710385537728,5317.0
18912.710448034966,5573.0
18912.710510532204,6479.0
18912.71057302944,6301.0
18912.710635526677,6234.0
18912.710698023915,7018.0
18912.71076052115,6722.0
18912.710823018388,6456.0
18912.710885515626,7134.0
18912.710948012864,7024.0
18912.7110105101,6673.0
18912.711073007336,6573.0
18912.711135504574,5932.0
18912.711198001813,4951.0
18912.711260499047,3646.0
18912.711322996285,2343.0
18912.711385493523,650.0
18912.71144799076,-1776.0
18912.711510487996,-3768.0
18912.711572985234,-5920.0
18912.711635482472,-8551.0
18912.71169797971,-10555.0
18912.711760476945,-12854.0
18912.711822974183,-15740.0
18912.71188547142,-17784.0
18912.71194796866,-19313.0
18912.712010465893,-21038.0
18912.71207296313,-21880.0
18912.71213546037,-21895.0
18912.712197957604,-22599.0
18912.712260454842,-23424.0
18912.71232295208,-23691.0
18912.71238544932,-24117.0
18912.712447946556,-24752.0
18912.71251044379,-24812.0
18912.71257294103,-24099.0
18912.712635438267,-24043.0
18912.7126979355,-24116.0
18912.71276043274,-23226.0
18912.712822929978,-22752.0
18912.712885427216,-22191.0
18912.71294792445,-18880.0
18912.71301042169,-13156.0
18912.713072918927,-7973.0
18912.713135416165,-2608.0
18912.7131979134,3648.0
18912.713260410637,7575.0
18912.713322907875,9617.0
18912.713385405114,11891.0
18912.713447902348,13221.0
18912.713510399586,12328.0
18912.713572896824,10298.0
18912.713635394062,9096.0
18912.713697891297,7363.0
18912.713760388535,4536.0
18912.713822885773,3729.0
18912.71388538301,3921.0
18912.713947880246,2447.0
18912.714010377484,1035.0
18912.71407287472,665.0
18912.714135371956,-44.0
18912.714197869194,-666.0
18912.714260366432,133.0
18912.71432286367,1794.0
18912.71438536091,2962.0
18912.714447858143,4309.0
18912.71451035538,6747.0
18912.71457285262,8921.0
18912.714635349854,10356.0
18912.714697847092,12151.0
18912.71476034433,13405.0
18912.714822841568,13299.0
18912.714885338803,12566.0
18912.71494783604,11590.0
18912.71501033328,10469.0
18912.715072830517,8978.0
18912.71513532775,7511.0
18912.71519782499,6302.0
18912.715260322228,4703.0
18912.715322819466,3316.0
18912.7153853167,2943.0
18912.71544781394,3301.0
18912.715510311176,3876.0
18912.715572808414,4616.0
18912.71563530565,6122.0
18912.715697802887,7811.0
18912.715760300125,8718.0
18912.715822797363,9701.0
18912.715885294598,10726.0
18912.715947791836,10336.0
18912.716010289074,9301.0
18912.71607278631,8816.0
18912.716135283546,7946.0
18912.716197780785,6778.0
18912.716260278023,6326.0
18912.716322775257,6203.0
18912.716385272495,5805.0
18912.716447769733,5317.0
18912.71651026697,5572.0
18912.716572764206,5819.0
18912.716635261444,5687.0
18912.716697758682,6456.0
18912.71676025592,7240.0
18912.716822753155,7382.0
18912.716885250393,7646.0
18912.71694774763,8018.0
18912.71701024487,7889.0
18912.717072742103,7280.0
18912.71713523934,6953.0
18912.71719773658,6136.0
18912.717260233818,4444.0
18912.717322731052,2763.0
18912.71738522829,690.0
18912.71744772553,-2057.0
18912.717510222767,-4655.0
18912.71757272,-6997.0
18912.71763521724,-9566.0
18912.717697714477,-11955.0
18912.717760211715,-14088.0
18912.71782270895,-16327.0
18912.717885206188,-18088.0
18912.717947703426,-19164.0
18912.71801020066,-19999.0
18912.7180726979,-20765.0
18912.718135195137,-21008.0
18912.718197692375,-21367.0
18912.71826018961,-22859.0
18912.718322686847,-23657.0
18912.718385184085,-23757.0
18912.718447681324,-24919.0
18912.718510178558,-24861.0
18912.718572675796,-23950.0
18912.718635173034,-24252.0
18912.718697670272,-24286.0
18912.718760167507,-23865.0
18912.718822664745,-23609.0
18912.718885161983,-22793.0
18912.71894765922,-19199.0
18912.719010156456,-13222.0
18912.719072653694,-7575.0
18912.719135150932,-2330.0
18912.71919764817,2527.0
18912.719260145404,6628.0
18912.719322642643,9362.0
18912.71938513988,11637.0
18912.719447637115,13534.0
18912.719510134353,12676.0
18912.71957263159,10611.0
18912.71963512883,8747.0
18912.719697626068,6495.0
18912.719760123302,4579.0
18912.71982262054,3919.0
18912.719885117778,3927.0
18912.719947615013,2819.0
18912.72001011225,1613.0
18912.72007260949,1115.0
18912.720135106727,817.0
18912.72019760396,1090.0
18912.7202601012,1833.0
18912.720322598438,3019.0
18912.720385095676,3825.0
18912.72044759291,4699.0
18912.72051009015,6590.0
18912.720572587386,8418.0
18912.720635084625,10511.0
18912.72069758186,12208.0
18912.720760079097,12870.0
18912.720822576335,13138.0
18912.720885073573,12414.0
18912.720947570808,11475.0
18912.721010068046,10428.0
18912.721072565284,8792.0
18912.721135062522,6909.0
18912.721197559757,4965.0
18912.721260056995,3581.0
18912.721322554233,2457.0
18912.721385051467,1813.0
18912.721447548705,2056.0
18912.721510045943,2961.0
18912.72157254318,4430.0
18912.721635040416,6114.0
18912.721697537654,8100.0
18912.721760034892,9626.0
18912.72182253213,10833.0
18912.721885029365,11670.0
18912.721947526603,11038.0
18912.72201002384,10218.0
18912.72207252108,9224.0
18912.722135018314,7905.0
18912.72219751555,7372.0
18912.72226001279,6955.0
18912.722322510028,6388.0
18912.722385007262,6002.0
18912.7224475045,5779.0
18912.72251000174,5600.0
18912.722572498977,5282.0
18912.72263499621,5300.0
18912.72269749345,5536.0
18912.722759990687,5472.0
18912.722822487925,5574.0
18912.72288498516,6126.0
18912.722947482398,6457.0
18912.723009979636,6452.0
18912.723072476874,6795.0
18912.72313497411,6928.0
18912.723197471347,6059.0
18912.723259968585,4909.0
18912.72332246582,3993.0
18912.723384963057,2230.0
18912.723447460296,-356.0
18912.723509957534,-2453.0
18912.723572454768,-4604.0
18912.723634952006,-7480.0
18912.723697449244,-9918.0
18912.723759946482,-12017.0
18912.723822443717,-14745.0
18912.723884940955,-17321.0
18912.723947438193,-18902.0
18912.72400993543,-20320.0
18912.724072432666,-21885.0
18912.724134929904,-22605.0
18912.724197427142,-22902.0
18912.72425992438,-23953.0
18912.724322421614,-24811.0
18912.724384918853,-24805.0
18912.72444741609,-25057.0
18912.72450991333,-25430.0
18912.724572410563,-25005.0
18912.7246349078,-24616.0
18912.72469740504,-24610.0
18912.724759902274,-24120.0
18912.724822399512,-23276.0
18912.72488489675,-22003.0
18912.72494739399,-19254.0
18912.725009891226,-13486.0
18912.72507238846,-6409.0
18912.7251348857,-1043.0
18912.725197382937,3936.0
18912.72525988017,8048.0
18912.72532237741,9844.0
18912.725384874648,10997.0
18912.725447371886,11723.0
18912.72550986912,11077.0
18912.72557236636,8889.0
18912.725634863596,6613.0
18912.725697360835,4984.0
18912.72575985807,3546.0
18912.725822355307,3179.0
18912.725884852545,3468.0
18912.725947349783,3221.0
18912.726009847018,2136.0
18912.726072344256,1007.0
18912.726134841494,576.0
18912.726197338732,504.0
18912.726259835967,1026.0
18912.726322333205,2134.0
18912.726384830443,3394.0
18912.72644732768,4689.0
18912.726509824915,6254.0
18912.726572322154,8452.0
18912.72663481939,10678.0
18912.726697316626,12256.0
18912.726759813864,12919.0
18912.726822311102,12855.0
18912.72688480834,12055.0
18912.726947305575,10688.0
18912.727009802813,9571.0
18912.72707230005,8569.0
18912.72713479729,7252.0
18912.727197294524,5567.0
18912.72725979176,4167.0
18912.727322289,3436.0
18912.727384786238,2806.0
18912.727447283472,2739.0
18912.72750978071,3600.0
18912.72757227795,4226.0
18912.727634775187,4822.0
18912.72769727242,7211.0
18912.72775976966,9720.0
18912.727822266897,10242.0
18912.727884764136,11064.0
18912.72794726137,11702.0
18912.728009758608,10225.0
18912.728072255846,8997.0
18912.728134753084,8840.0
18912.72819725032,8147.0
18912.728259747557,6888.0
18912.728322244795,6331.0
18912.728384742033,6164.0
18912.728447239268,5070.0
18912.728509736506,4660.0
18912.728572233744,5384.0
18912.72863473098,5444.0
18912.728697228216,5210.0
18912.728759725454,5630.0
18912.728822222693,6253.0
18912.728884719927,6422.0
18912.728947217165,6920.0
18912.729009714403,7838.0
18912.72907221164,7707.0
18912.729134708876,6798.0
18912.729197206114,6040.0
18912.729259703352,4935.0
18912.72932220059,3143.0
18912.729384697825,1414.0
18912.729447195063,-51.0
18912.7295096923,-2220.0
18912.72957218954,-5079.0
18912.729634686773,-7400.0
18912.72969718401,-9699.0
18912.72975968125,-13005.0
18912.729822178488,-15850.0
18912.729884675722,-17750.0
18912.72994717296,-20209.0
18912.7300096702,-22117.0
18912.730072167433,-22369.0
18912.73013466467,-22557.0
18912.73019716191,-23078.0
18912.730259659147,-23165.0
18912.730322156385,-23092.0
18912.73038465362,-23542.0
18912.730447150858,-24146.0
18912.730509648096,-24361.0
18912.73057214533,-24516.0
18912.73063464257,-24927.0
18912.730697139807,-24797.0
18912.730759637045,-24045.0
18912.73082213428,-24026.0
18912.730884631517,-23260.0
18912.730947128755,-19357.0
18912.731009625993,-13433.0
18912.731072123228,-7649.0
18912.731134620466,-1819.0
18912.731197117704,4022.0
18912.731259614942,7686.0
18912.731322112177,9802.0
18912.731384609415,11889.0
18912.731447106653,12644.0
18912.73150960389,11911.0
18912.731572101125,10453.0
18912.731634598364,8905.0
18912.7316970956,6941.0
18912.73175959284,5044.0
18912.731822090074,4786.0
18912.731884587312,4461.0
18912.73194708455,3490.0
18912.732009581785,2605.0
18912.732072079023,1365.0
18912.73213457626,374.0
18912.7321970735,-342.0
18912.732259570737,61.0
18912.732322067972,1276.0
18912.73238456521,2193.0
18912.732447062448,3697.0
18912.732509559683,5559.0
18912.73257205692,7466.0
18912.73263455416,9598.0
18912.732697051397,11602.0
18912.73275954863,12892.0
18912.73282204587,12753.0
18912.732884543108,12091.0
18912.732947040346,11076.0
18912.73300953758,9924.0
18912.733072034818,9046.0
18912.733134532056,7754.0
18912.733197029294,6463.0
18912.73325952653,5222.0
18912.733322023767,4013.0
18912.733384521005,3405.0
18912.733447018243,3292.0
18912.733509515478,3968.0
18912.733572012716,4791.0
18912.733634509954,5775.0
18912.733697007192,7293.0
18912.733759504426,8408.0
18912.733822001665,9075.0
18912.733884498903,9916.0
18912.733946996137,10185.0
18912.734009493375,9506.0
18912.734071990613,9105.0
18912.73413448785,8325.0
18912.734196985086,7127.0
18912.734259482324,6574.0
18912.734321979562,5976.0
18912.7343844768,5441.0
18912.734446974035,5004.0
18912.734509471273,5212.0
18912.73457196851,5935.0
18912.73463446575,6308.0
18912.734696962983,7131.0
18912.73475946022,7680.0
18912.73482195746,7500.0
18912.734884454698,7506.0
18912.734946951932,7591.0
18912.73500944917,7113.0
18912.73507194641,6416.0
18912.735134443647,6268.0
18912.73519694088,5553.0
18912.73525943812,3984.0
18912.735321935357,2821.0
18912.735384432595,1490.0
18912.73544692983,-801.0
18912.735509427068,-3301.0
18912.735571924306,-5677.0
18912.735634421544,-8502.0
18912.73569691878,-11797.0
18912.735759416017,-14573.0
18912.735821913255,-16858.0
18912.73588441049,-19400.0
18912.735946907727,-21105.0
18912.736009404965,-21731.0
18912.736071902204,-22463.0
18912.736134399438,-22888.0
18912.736196896676,-22744.0
18912.736259393914,-23158.0
18912.736321891152,-23939.0
18912.736384388387,-24067.0
18912.736446885625,-24521.0
18912.736509382863,-25144.0
18912.7365718801,-25004.0
18912.736634377336,-25177.0
18912.736696874574,-25393.0
18912.73675937181,-25137.0
18912.73682186905,-24249.0
18912.736884366284,-21627.0
18912.736946863522,-16696.0
18912.73700936076,-10089.0
18912.737071858,-3548.0
18912.737134355233,2086.0
18912.73719685247,6776.0
18912.73725934971,10045.0
18912.737321846944,12063.0
18912.737384344182,13207.0
18912.73744684142,12919.0
18912.737509338658,11163.0
18912.737571835896,8904.0
18912.73763433313,6679.0
18912.73769683037,4812.0
18912.737759327607,3868.0
18912.73782182484,3571.0
18912.73788432208,2869.0
18912.737946819318,1964.0
18912.738009316556,965.0
18912.73807181379,-127.0
18912.73813431103,-561.0
18912.738196808266,-330.0
18912.738259305504,685.0
18912.73832180274,1925.0
18912.738384299977,3281.0
18912.738446797215,5600.0
18912.738509294453,7818.0
18912.738571791688,10067.0
18912.738634288926,12547.0
18912.738696786164,13683.0
18912.738759283402,13719.0
18912.738821780636,13258.0
18912.738884277875,12139.0
18912.738946775113,10541.0
18912.73900927235,9042.0
18912.739071769585,7863.0
18912.739134266823,6165.0
18912.73919676406,4479.0
18912.739259261296,3541.0
18912.739321758534,3004.0
18912.739384255772,2753.0
18912.73944675301,2575.0
18912.739509250245,3366.0
18912.739571747483,5351.0
18912.73963424472,6944.0
18912.73969674196,8304.0
18912.739759239194,9858.0
18912.73982173643,10703.0
18912.73988423367,10661.0
18912.739946730908,10630.0
18912.740009228142,10585.0
18912.74007172538,9593.0
18912.74013422262,8341.0
18912.740196719857,7675.0
18912.74025921709,6664.0
18912.74032171433,5242.0
18912.740384211567,4621.0
18912.740446708805,4445.0
18912.74050920604,3794.0
18912.740571703278,3673.0
18912.740634200516,4564.0
18912.740696697754,5251.0
18912.74075919499,5771.0
18912.740821692227,6918.0
18912.740884189465,8057.0
18912.740946686703,8229.0
18912.741009183937,8012.0
18912.741071681176,8029.0
18912.741134178414,7008.0
18912.741196675648,5164.0
18912.741259172886,4084.0
18912.741321670124,2751.0
18912.741384167362,228.0
18912.741446664597,-2144.0
18912.741509161835,-4050.0
18912.741571659073,-7044.0
18912.74163415631,-10122.0
18912.741696653546,-12282.0
18912.741759150784,-15265.0
18912.741821648022,-18563.0
18912.74188414526,-20595.0
18912.741946642494,-21532.0
18912.742009139733,-22242.0
18912.74207163697,-22477.0
18912.74213413421,-22204.0
18912.742196631443,-22895.0
18912.74225912868,-23724.0
18912.74232162592,-24106.0
18912.742384123158,-24788.0
18912.742446620392,-25584.0
18912.74250911763,-25991.0
18912.74257161487,-25798.0
18912.742634112103,-25725.0
18912.74269660934,-25495.0
18912.74275910658,-24661.0
18912.742821603817,-22872.0
18912.742884101055,-19544.0
18912.74294659829,-13709.0
18912.743009095528,-6744.0
18912.743071592766,-1529.0
18912.74313409,3693.0
18912.74319658724,8376.0
18912.743259084476,10615.0
18912.743321581715,12572.0
18912.74338407895,13648.0
18912.743446576187,13290.0
18912.743509073425,11684.0
18912.743571570663,8791.0
18912.743634067898,6861.0
18912.743696565136,4994.0
18912.743759062374,3426.0
18912.743821559612,3306.0
18912.743884056847,2318.0
18912.743946554085,868.0
18912.744009051323,-90.0
18912.74407154856,-758.0
18912.744134045795,-583.0
18912.744196543033,66.0
18912.74425904027,1277.0
18912.74432153751,2818.0
18912.744384034744,4362.0
18912.744446531982,6252.0
18912.74450902922,8589.0
18912.744571526455,10952.0
18912.744634023693,12606.0
18912.74469652093,13666.0
18912.74475901817,13727.0
18912.744821515404,12874.0
18912.74488401264,11904.0
18912.74494650988,10715.0
18912.745009007118,9530.0
18912.745071504352,7941.0
18912.74513400159,5974.0
18912.74519649883,4374.0
18912.745258996067,2967.0
18912.7453214933,2070.0
18912.74538399054,2060.0
18912.745446487777,2288.0
18912.745508985015,3161.0
18912.74557148225,5534.0
18912.745633979488,7699.0
18912.745696476726,9086.0
18912.745758973964,10618.0
18912.7458214712,11096.0
18912.745883968437,10830.0
18912.745946465675,10761.0
18912.746008962913,10264.0
18912.746071460148,9347.0
18912.746133957386,8261.0
18912.746196454624,7676.0
18912.74625895186,6894.0
18912.746321449096,5666.0
18912.746383946334,5614.0
18912.746446443572,5806.0
18912.746508940807,5149.0
18912.746571438045,4972.0
18912.746633935283,5389.0
18912.74669643252,5126.0
18912.746758929756,5227.0
18912.746821426994,6350.0
18912.746883924232,6678.0
18912.74694642147,6361.0
18912.747008918705,6432.0
18912.747071415943,6345.0
18912.74713391318,5307.0
18912.74719641042,4299.0
18912.747258907653,3772.0
18912.74732140489,1923.0
18912.74738390213,-733.0
18912.747446399368,-2762.0
18912.747508896602,-5236.0
18912.74757139384,-8464.0
18912.74763389108,-11100.0
18912.747696388316,-13923.0
18912.74775888555,-17471.0
18912.74782138279,-19927.0
18912.747883880027,-21445.0
18912.74794637726,-22677.0
18912.7480088745,-23160.0
18912.748071371738,-23360.0
18912.748133868976,-23484.0
18912.748196366214,-23982.0
18912.74825886345,-24824.0
18912.748321360687,-24925.0
18912.748383857925,-25454.0
18912.74844635516,-26223.0
18912.748508852397,-25779.0
18912.748571349635,-25628.0
18912.748633846873,-25844.0
18912.748696344108,-25081.0
18912.748758841346,-23499.0
18912.748821338584,-20563.0
18912.748883835822,-14360.0
18912.748946333057,-6825.0
18912.749008830295,-928.0
18912.749071327533,4545.0
18912.74913382477,9023.0
18912.749196322005,11527.0
18912.749258819244,13134.0
18912.74932131648,13880.0
18912.74938381372,13498.0
18912.749446310954,11070.0
18912.749508808192,8144.0
18912.74957130543,6261.0
18912.74963380267,4358.0
18912.749696299903,3212.0
18912.74975879714,3051.0
18912.74982129438,2393.0
18912.749883791614,847.0
18912.74994628885,-306.0
18912.75000878609,-734.0
18912.750071283328,-929.0
18912.750133780562,-107.0
18912.7501962778,1513.0
18912.75025877504,3098.0
18912.750321272277,4614.0
18912.75038376951,6686.0
18912.75044626675,9482.0
18912.750508763987,11850.0
18912.750571261226,13678.0
18912.75063375846,14789.0
18912.750696255698,14446.0
18912.750758752936,13103.0
18912.750821250174,11608.0
18912.75088374741,10354.0
18912.750946244647,8612.0
18912.751008741885,6478.0
18912.751071239123,4953.0
18912.751133736358,3400.0
18912.751196233596,2000.0
18912.751258730834,1707.0
18912.751321228072,1914.0
18912.751383725306,2076.0
18912.751446222544,2184.0
18912.751508719783,3479.0
18912.75157121702,6206.0
18912.751633714255,8445.0
18912.751696211493,10304.0
18912.75175870873,12257.0
18912.751821205966,12840.0
18912.751883703204,12017.0
18912.751946200442,11628.0
18912.75200869768,11059.0
18912.752071194915,9241.0
18912.752133692153,7833.0
18912.75219618939,6918.0
18912.75225868663,5493.0
18912.752321183863,4267.0
18912.7523836811,4397.0
18912.75244617834,4896.0
18912.752508675578,4479.0
18912.752571172812,4962.0
18912.75263367005,6124.0
18912.75269616729,5919.0
18912.752758664526,6057.0
18912.75282116176,7330.0
18912.752883659,7377.0
18912.752946156237,6801.0
18912.753008653475,7069.0
18912.75307115071,6473.0
18912.753133647948,4872.0
18912.753196145186,3942.0
18912.75325864242,2943.0
18912.75332113966,463.0
18912.753383636897,-2452.0
18912.753446134135,-4801.0
18912.753508631373,-7860.0
18912.753571128607,-11280.0
18912.753633625845,-13714.0
18912.753696123084,-16276.0
18912.753758620318,-19035.0
18912.753821117556,-20529.0
18912.753883614794,-21408.0
18912.753946112032,-22681.0
18912.754008609267,-22842.0
18912.754071106505,-22410.0
18912.754133603743,-23065.0
18912.75419610098,-24165.0
18912.754258598216,-24961.0
18912.754321095454,-25554.0
18912.75438359269,-26135.0
18912.75444608993,-25787.0
18912.754508587164,-24956.0
18912.754571084402,-24907.0
18912.75463358164,-24684.0
18912.75469607888,-23847.0
18912.754758576113,-22495.0
18912.75482107335,-18885.0
18912.75488357059,-11906.0
18912.754946067827,-5139.0
18912.755008565062,112.0
18912.7550710623,5819.0
18912.755133559538,9503.0
18912.755196056773,11703.0
18912.75525855401,13975.0
18912.75532105125,14558.0
18912.755383548487,13494.0
18912.755446045725,10556.0
18912.75550854296,7869.0
18912.755571040198,5832.0
18912.755633537436,3501.0
18912.75569603467,2974.0
18912.75575853191,2851.0
18912.755821029146,1630.0
18912.755883526384,572.0
18912.75594602362,191.0
18912.756008520857,-69.0
18912.756071018095,-58.0
18912.756133515333,1263.0
18912.756196012568,2438.0
18912.756258509806,3421.0
18912.756321007044,5013.0
18912.756383504282,7155.0
18912.756446001516,9773.0
18912.756508498755,11760.0
18912.756570995993,13556.0
18912.75663349323,14418.0
18912.756695990465,13781.0
18912.756758487703,12970.0
18912.75682098494,11788.0
18912.75688348218,10368.0
18912.756945979414,8586.0
18912.757008476652,6658.0
18912.75707097389,4883.0
18912.757133471125,3116.0
18912.757195968363,2190.0
18912.7572584656,1808.0
18912.75732096284,1710.0
18912.757383460073,1982.0
18912.75744595731,2854.0
18912.75750845455,4510.0
18912.757570951788,6321.0
18912.757633449022,8914.0
18912.75769594626,11272.0
18912.7577584435,11904.0
18912.757820940737,12094.0
18912.75788343797,11931.0
18912.75794593521,10944.0
18912.758008432447,10227.0
18912.758070929685,9509.0
18912.75813342692,8200.0
18912.758195924158,6811.0
18912.758258421396,5927.0
18912.758320918634,5697.0
18912.75838341587,5437.0
18912.758445913107,5628.0
18912.758508410345,6470.0
18912.758570907583,6544.0
18912.758633404817,6163.0
18912.758695902055,6345.0
18912.758758399294,6556.0
18912.75882089653,6529.0
18912.758883393766,7006.0
18912.758945891004,7054.0
18912.759008388242,6105.0
18912.759070885477,5120.0
18912.759133382715,3917.0
18912.759195879953,2409.0
18912.75925837719,588.0
18912.759320874426,-1249.0
18912.759383371664,-3219.0
18912.759445868902,-6211.0
18912.75950836614,-9188.0
18912.759570863374,-11507.0
18912.759633360612,-14403.0
18912.75969585785,-17410.0
18912.75975835509,-19422.0
18912.759820852323,-21146.0
18912.75988334956,-22758.0
18912.7599458468,-23529.0
18912.760008344037,-23514.0
18912.760070841272,-23849.0
18912.76013333851,-24992.0
18912.760195835748,-25368.0
18912.760258332986,-25904.0
18912.76032083022,-27393.0
18912.76038332746,-27224.0
18912.760445824697,-26429.0
18912.76050832193,-26547.0
18912.76057081917,-26223.0
18912.760633316408,-25326.0
18912.760695813646,-24015.0
18912.760758310884,-20713.0
18912.76082080812,-13631.0
18912.760883305356,-5344.0
18912.760945802595,1037.0
18912.76100829983,6515.0
18912.761070797067,10872.0
18912.761133294305,13211.0
18912.761195791543,14415.0
18912.761258288778,15282.0
18912.761320786016,14927.0
18912.761383283254,11999.0
18912.761445780492,8610.0
18912.761508277727,6214.0
18912.761570774965,4150.0
18912.761633272203,3001.0
18912.76169576944,2755.0
18912.761758266675,2216.0
18912.761820763913,471.0
18912.76188326115,-1085.0
18912.76194575839,-1582.0
18912.762008255624,-1694.0
18912.762070752862,-743.0
18912.7621332501,951.0
18912.76219574734,2621.0
18912.762258244573,4457.0
18912.76232074181,6799.0
18912.76238323905,9893.0
18912.762445736284,12688.0
18912.76250823352,14699.0
18912.76257073076,15691.0
18912.762633227998,15151.0
18912.762695725232,13769.0
18912.76275822247,12008.0
18912.76282071971,10226.0
18912.762883216947,8608.0
18912.76294571418,6786.0
18912.76300821142,4755.0
18912.763070708657,3181.0
18912.763133205895,2203.0
18912.76319570313,1513.0
18912.763258200368,1537.0
18912.763320697606,1987.0
18912.763383194844,2958.0
18912.76344569208,4895.0
18912.763508189317,6954.0
18912.763570686555,9159.0
18912.763633183793,11128.0
18912.763695681027,12004.0
18912.763758178266,12290.0
18912.763820675504,12098.0
18912.76388317274,11376.0
18912.763945669976,10447.0
18912.764008167214,9366.0
18912.764070664452,8051.0
18912.76413316169,6745.0
18912.764195658925,5574.0
18912.764258156163,4777.0
18912.7643206534,4838.0
18912.764383150636,4901.0
18912.764445647874,4886.0
18912.764508145112,5505.0
18912.76457064235,5768.0
18912.764633139584,5924.0
18912.764695636823,6733.0
18912.76475813406,7188.0
18912.7648206313,7215.0
18912.764883128533,7305.0
18912.76494562577,6867.0
18912.76500812301,5828.0
18912.765070620248,4748.0
18912.765133117482,3453.0
18912.76519561472,1675.0
18912.76525811196,-557.0
18912.765320609196,-2949.0
18912.76538310643,-5739.0
18912.76544560367,-8788.0
18912.765508100907,-11345.0
18912.765570598145,-14523.0
18912.76563309538,-17765.0
18912.765695592618,-19698.0
18912.765758089856,-21771.0
18912.76582058709,-22949.0
18912.76588308433,-22200.0
18912.765945581566,-22206.0
18912.766008078805,-22875.0
18912.766070576043,-23104.0
18912.766133073277,-23684.0
18912.766195570515,-24935.0
18912.766258067753,-25875.0
18912.766320564988,-25975.0
18912.766383062226,-26605.0
18912.766445559464,-26653.0
18912.766508056702,-26066.0
18912.766570553937,-25905.0
18912.766633051175,-24676.0
18912.766695548413,-20621.0
18912.76675804565,-12476.0
18912.766820542885,-4825.0
18912.766883040124,1064.0
18912.76694553736,7642.0
18912.7670080346,10909.0
18912.767070531834,12215.0
18912.767133029072,14070.0
18912.76719552631,14420.0
18912.76725802355,13203.0
18912.767320520783,10380.0
18912.76738301802,7724.0
18912.76744551526,5510.0
18912.767508012497,3271.0
18912.76757050973,3059.0
18912.76763300697,3469.0
18912.767695504208,2350.0
18912.767758001442,555.0
18912.76782049868,-620.0
18912.76788299592,-1448.0
18912.767945493157,-1828.0
18912.76800799039,-566.0
18912.76807048763,1171.0
18912.768132984867,2691.0
18912.768195482106,4525.0
18912.76825797934,6846.0
18912.768320476578,9791.0
18912.768382973816,12339.0
18912.768445471054,14333.0
18912.76850796829,15618.0
18912.768570465527,15181.0
18912.768632962765,13752.0
18912.768695460003,12259.0
18912.768757957238,10751.0
18912.768820454476,8843.0
18912.768882951714,6724.0
18912.768945448952,5041.0
18912.769007946186,3455.0
18912.769070443424,2183.0
18912.769132940663,1845.0
18912.7691954379,2149.0
18912.769257935135,2160.0
18912.769320432373,2751.0
18912.76938292961,5380.0
18912.76944542685,7740.0
18912.769507924084,9218.0
18912.769570421322,11561.0
18912.76963291856,12722.0
18912.769695415795,12280.0
18912.769757913033,12056.0
18912.76982041027,11802.0
18912.76988290751,10704.0
18912.769945404743,9031.0
18912.77000790198,8246.0
18912.77007039922,7358.0
18912.770132896458,5483.0
18912.770195393692,4835.0
18912.77025789093,5331.0
18912.77032038817,4919.0
18912.770382885406,4729.0
18912.77044538264,5911.0
18912.77050787988,6277.0
18912.770570377117,6285.0
18912.770632874355,7504.0
18912.77069537159,8278.0
18912.770757868828,7881.0
18912.770820366066,7506.0
18912.770882863304,7396.0
18912.77094536054,6176.0
18912.771007857777,4470.0
18912.771070355015,3612.0
18912.77113285225,2085.0
18912.771195349487,-610.0
18912.771257846725,-2907.0
18912.771320343963,-5226.0
18912.7713828412,-8481.0
18912.771445338436,-11144.0
18912.771507835674,-13840.0
18912.771570332912,-17233.0
18912.771632830147,-19592.0
18912.771695327385,-21389.0
18912.771757824623,-22439.0
18912.77182032186,-22405.0
18912.771882819095,-22754.0
18912.771945316334,-23372.0
18912.77200781357,-24223.0
18912.77207031081,-25078.0
18912.772132808044,-25319.0
18912.772195305282,-25601.0
18912.77225780252,-25638.0
18912.77232029976,-25105.0
18912.772382796993,-25362.0
18912.77244529423,-25772.0
18912.77250779147,-25039.0
18912.772570288707,-23893.0
18912.772632785942,-19904.0
18912.77269528318,-12718.0
18912.772757780418,-6018.0
18912.772820277656,611.0
18912.77288277489,6902.0
18912.77294527213,10982.0
18912.773007769367,13980.0
18912.7730702666,16001.0
18912.77313276384,16420.0
18912.773195261077,15086.0
18912.773257758316,12179.0
18912.77332025555,9411.0
18912.773382752788,6999.0
18912.773445250026,4820.0
18912.773507747264,4026.0
18912.7735702445,3542.0
18912.773632741737,1927.0
18912.773695238975,525.0
18912.773757736213,-277.0
18912.773820233448,-1269.0
18912.773882730686,-1513.0
18912.773945227924,-640.0
18912.774007725162,582.0
18912.774070222396,1888.0
18912.774132719635,3798.0
18912.774195216873,6901.0
18912.77425771411,9838.0
18912.774320211345,12071.0
18912.774382708583,14639.0
18912.77444520582,16010.0
18912.77450770306,15470.0
18912.774570200294,14586.0
18912.774632697532,13540.0
18912.77469519477,11793.0
18912.77475769201,9479.0
18912.774820189243,7283.0
18912.77488268648,5412.0
18912.77494518372,3554.0
18912.775007680953,2285.0
18912.77507017819,2083.0
18912.77513267543,2120.0
18912.775195172668,2065.0
18912.775257669902,3749.0
18912.77532016714,6302.0
18912.77538266438,7999.0
18912.775445161617,10404.0
18912.77550765885,12054.0
18912.77557015609,12122.0
18912.775632653327,12612.0
18912.775695150565,12373.0
18912.7757576478,11484.0
18912.775820145038,10991.0
18912.775882642276,10223.0
18912.775945139514,9108.0
18912.77600763675,7943.0
18912.776070133987,7224.0
18912.776132631225,6529.0
18912.776195128463,5664.0
18912.776257625697,5330.0
18912.776320122935,5217.0
18912.776382620174,4697.0
18912.776445117408,4845.0
18912.776507614646,6069.0
18912.776570111884,6502.0
18912.776632609122,6912.0
18912.77669510636,7909.0
18912.776757603595,7727.0
18912.776820100833,6997.0
18912.77688259807,6401.0
18912.776945095306,5266.0
18912.777007592544,3393.0
18912.77707008978,1175.0
18912.77713258702,-1178.0
18912.777195084254,-4155.0
18912.777257581492,-7236.0
18912.77732007873,-9640.0
18912.77738257597,-12119.0
18912.777445073203,-15270.0
18912.77750757044,-17890.0
18912.77757006768,-19860.0
18912.777632564917,-21832.0
18912.777695062152,-22845.0
18912.77775755939,-22943.0
18912.777820056628,-23090.0
18912.777882553866,-23765.0
18912.7779450511,-24546.0
18912.77800754834,-25114.0
18912.778070045577,-26211.0
18912.778132542815,-26833.0
18912.77819504005,-26526.0
18912.778257537288,-26445.0
18912.778320034526,-26535.0
18912.77838253176,-25897.0
18912.778445029,-24703.0
18912.778507526236,-22594.0
18912.778570023474,-16272.0
18912.778632520713,-7544.0
18912.778695017947,-876.0
18912.778757515185,6002.0
18912.778820012423,11946.0
18912.778882509658,14144.0
18912.778945006896,15914.0
18912.779007504134,17149.0
18912.779070001372,16177.0
18912.779132498606,13420.0
18912.779194995845,9802.0
18912.779257493083,7104.0
18912.77931999032,4229.0
18912.779382487555,2586.0
18912.779444984793,3116.0
18912.77950748203,2411.0
18912.77956997927,1001.0
18912.779632476504,-47.0
18912.779694973742,-1081.0
18912.77975747098,-1722.0
18912.77981996822,-1181.0
18912.779882465453,542.0
18912.77994496269,2034.0
18912.78000745993,3832.0
18912.780069957167,6186.0
18912.7801324544,9285.0
18912.78019495164,12543.0
18912.780257448878,15023.0
18912.780319946112,17126.0
18912.78038244335,17181.0
18912.78044494059,15732.0
18912.780507437827,14438.0
18912.78056993506,12698.0
18912.7806324323,10850.0
18912.780694929537,8469.0
18912.780757426775,6050.0
18912.78081992401,3988.0
18912.780882421248,1948.0
18912.780944918486,970.0
18912.781007415724,799.0
18912.78106991296,1072.0
18912.781132410197,1555.0
18912.781194907435,3044.0
18912.781257404673,5926.0
18912.781319901907,7829.0
18912.781382399146,9278.0
18912.781444896384,11539.0
18912.78150739362,12929.0
18912.781569890856,12933.0
18912.781632388094,13071.0
18912.781694885332,13286.0
18912.78175738257,12077.0
18912.781819879805,10335.0
18912.781882377043,9685.0
18912.78194487428,8541.0
18912.78200737152,6423.0
18912.782069868754,5520.0
18912.782132365992,5239.0
18912.78219486323,4234.0
18912.782257360464,4004.0
18912.782319857703,5194.0
18912.78238235494,5954.0
18912.78244485218,6128.0
18912.782507349413,7302.0
18912.78256984665,8043.0
18912.78263234389,7499.0
18912.782694841128,7222.0
18912.782757338362,6864.0
18912.7828198356,5660.0
18912.78288233284,3988.0
18912.782944830076,2801.0
18912.78300732731,1243.0
18912.78306982455,-1357.0
18912.783132321787,-3252.0
18912.783194819025,-5324.0
18912.78325731626,-8217.0
18912.783319813498,-10929.0
18912.783382310736,-14114.0
18912.783444807974,-17373.0
18912.78350730521,-19808.0
18912.783569802446,-21411.0
18912.783632299685,-22312.0
18912.78369479692,-22430.0
18912.783757294157,-21990.0
18912.783819791395,-22267.0
18912.783882288633,-23085.0
18912.78394478587,-23943.0
18912.784007283106,-24999.0
18912.784069780344,-25919.0
18912.784132277582,-26529.0
18912.784194774817,-26401.0
18912.784257272055,-26345.0
18912.784319769293,-26704.0
18912.78438226653,-25601.0
18912.784444763765,-23804.0
18912.784507261003,-20435.0
18912.78456975824,-13142.0
18912.78463225548,-5554.0
18912.784694752714,552.0
18912.784757249952,6885.0
18912.78481974719,11906.0
18912.78488224443,14870.0
18912.784944741663,16980.0
18912.7850072389,17854.0
18912.78506973614,16673.0
18912.785132233377,13332.0
18912.78519473061,9718.0
18912.78525722785,7113.0
18912.785319725088,4625.0
18912.785382222326,3285.0
18912.78544471956,3051.0
18912.7855072168,2008.0
18912.785569714037,451.0
18912.78563221127,-638.0
18912.78569470851,-1211.0
18912.785757205747,-1339.0
18912.785819702985,-546.0
18912.78588220022,711.0
18912.785944697458,2064.0
18912.786007194696,4017.0
18912.786069691934,6542.0
18912.78613218917,9792.0
18912.786194686407,12710.0
18912.786257183645,14955.0
18912.786319680883,16537.0
18912.786382178117,16382.0
18912.786444675356,15381.0
18912.786507172594,14090.0
18912.78656966983,12093.0
18912.786632167066,9874.0
18912.786694664304,7525.0
18912.786757161542,5163.0
18912.78681965878,3103.0
18912.786882156015,1752.0
18912.786944653253,1427.0
18912.78700715049,1814.0
18912.78706964773,2208.0
18912.787132144964,2781.0
18912.787194642202,4316.0
18912.78725713944,6848.0
18912.787319636678,10035.0
18912.787382133913,12133.0
18912.78744463115,13266.0
18912.78750712839,14313.0
18912.787569625623,13341.0
18912.78763212286,12522.0
18912.7876946201,12835.0
18912.787757117338,11794.0
18912.787819614572,10336.0
18912.78788211181,8957.0
18912.78794460905,7717.0
18912.788007106286,6456.0
18912.78806960352,5520.0
18912.78813210076,5925.0
18912.788194597997,5858.0
18912.788257095235,5006.0
18912.78831959247,4965.0
18912.788382089708,5375.0
18912.788444586946,5360.0
18912.788507084184,6049.0
18912.78856958142,7394.0
18912.788632078657,7392.0
18912.788694575895,6929.0
18912.788757073133,6605.0
18912.788819570367,5571.0
18912.788882067605,4203.0
18912.788944564843,2657.0
18912.789007062078,427.0
18912.789069559316,-2820.0
18912.789132056554,-6300.0
18912.789194553792,-9539.0
18912.78925705103,-12870.0
18912.789319548265,-15955.0
